# Name : Kerbbereich
# Stage: 83
# Units: length:mm angle:deg time:s 
id,x,y,z,displacement_x,displacement_y,displacement_z,epsilon_x,epsilon_y
39,9.5271,-5.5420,-0.0746,-0.2185,-0.7979,-0.0446,-0.0002,0.0007
40,9.4133,-5.2095,-0.0729,-0.2144,-0.7957,-0.0452,0.0001,0.0017
41,9.1185,-4.9725,-0.0696,-0.2112,-0.7911,-0.0453,-0.0004,0.0011
42,8.8277,-4.7289,-0.0672,-0.2073,-0.7851,-0.0451,-0.0007,0.0034
43,8.5540,-4.4674,-0.0659,-0.2021,-0.7766,-0.0443,-0.0015,0.0068
44,8.3058,-4.1785,-0.0626,-0.1954,-0.7646,-0.0417,-0.0025,0.0128
45,8.0882,-3.8669,-0.0591,-0.1873,-0.7484,-0.0379,-0.0024,0.0215
46,7.8981,-3.5325,-0.0477,-0.1793,-0.7276,-0.0297,-0.0055,0.0358
47,7.7221,-3.1816,-0.0337,-0.1732,-0.6994,-0.0191,-0.0061,0.0548
48,7.5654,-2.8134,-0.0165,-0.1722,-0.6615,-0.0066,-0.0134,0.0824
49,7.4259,-2.4208,-0.0037,-0.1768,-0.6116,0.0101,-0.0290,0.1237
50,7.2928,-2.0066,0.0151,-0.1909,-0.5438,0.0293,-0.0514,0.1747
51,7.1776,-1.5645,0.0435,-0.2148,-0.4549,0.0542,-0.0800,0.2482
52,7.0693,-1.0865,0.0707,-0.2501,-0.3360,0.0810,-0.1026,0.3018
53,6.9896,-0.5747,0.0931,-0.2887,-0.1858,0.1017,-0.1413,0.3652
54,6.9541,-0.0339,0.1002,-0.3071,-0.0095,0.1118,-0.1629,0.3891
55,6.9646,0.5017,0.0900,-0.2882,0.1632,0.1002,-0.1503,0.3659
56,7.0298,1.0152,0.0631,-0.2487,0.3123,0.0776,-0.1133,0.3110
57,7.1151,1.4982,0.0368,-0.2110,0.4326,0.0506,-0.0763,0.2427
58,7.2281,1.9440,0.0077,-0.1864,0.5227,0.0247,-0.0451,0.1726
59,7.3508,2.3614,-0.0123,-0.1727,0.5895,0.0041,-0.0275,0.1218
60,7.4949,2.7533,-0.0304,-0.1677,0.6397,-0.0137,-0.0196,0.0902
61,7.6560,3.1243,-0.0464,-0.1695,0.6782,-0.0289,-0.0112,0.0528
62,7.8434,3.4716,-0.0567,-0.1742,0.7066,-0.0392,-0.0056,0.0378
63,8.0534,3.7981,-0.0675,-0.1812,0.7286,-0.0483,-0.0041,0.0226
64,8.2909,4.0996,-0.0712,-0.1880,0.7447,-0.0509,-0.0018,0.0127
65,8.5408,4.3865,-0.0780,-0.1942,0.7562,-0.0540,-0.0017,0.0069
66,8.8101,4.6567,-0.0802,-0.1992,0.7641,-0.0565,-0.0011,0.0039
67,9.0951,4.9106,-0.0812,-0.2030,0.7694,-0.0569,-0.0006,0.0015
68,9.3948,5.1494,-0.0779,-0.2052,0.7730,-0.0560,0.0004,0.0015
69,9.4846,5.4957,-0.0790,-0.2088,0.7741,-0.0563,-0.0008,0.0009
70,9.4886,5.8611,-0.0825,-0.2115,0.7743,-0.0563,-0.0014,0.0010
190,-9.4981,5.7272,-0.0358,0.2188,0.8075,-0.0589,-0.0007,0.0016
191,-9.4883,5.3706,-0.0361,0.2145,0.8068,-0.0590,0.0011,0.0013
192,-9.2918,5.0835,-0.0300,0.2108,0.8041,-0.0585,-0.0002,0.0012
193,-9.0050,4.8594,-0.0335,0.2074,0.7990,-0.0571,0.0004,0.0014
194,-8.7331,4.6155,-0.0338,0.2032,0.7922,-0.0568,-0.0001,0.0040
195,-8.4884,4.3436,-0.0307,0.1975,0.7835,-0.0549,-0.0015,0.0078
196,-8.2640,4.0514,-0.0276,0.1903,0.7708,-0.0522,-0.0034,0.0150
197,-8.0655,3.7390,-0.0234,0.1820,0.7536,-0.0478,-0.0030,0.0257
198,-7.8835,3.4094,-0.0137,0.1749,0.7314,-0.0390,-0.0038,0.0382
199,-7.7101,3.0667,-0.0023,0.1697,0.7018,-0.0281,-0.0136,0.0593
200,-7.5611,2.7011,0.0089,0.1693,0.6634,-0.0129,-0.0243,0.0893
201,-7.4290,2.3143,0.0318,0.1741,0.6125,0.0049,-0.0350,0.1357
202,-7.3012,1.9064,0.0496,0.1877,0.5443,0.0266,-0.0474,0.1793
203,-7.1898,1.4661,0.0744,0.2122,0.4526,0.0531,-0.0739,0.2402
204,-7.0798,0.9968,0.0995,0.2487,0.3342,0.0818,-0.1144,0.3150
205,-6.9861,0.4915,0.1255,0.2830,0.1830,0.1069,-0.1490,0.3755
206,-6.9433,-0.0383,0.1356,0.2971,0.0095,0.1183,-0.1653,0.3888
207,-6.9788,-0.5675,0.1263,0.2768,-0.1603,0.1071,-0.1416,0.3615
208,-7.0601,-1.0712,0.1005,0.2372,-0.3089,0.0822,-0.1071,0.3205
209,-7.1675,-1.5394,0.0730,0.2060,-0.4265,0.0557,-0.0764,0.2375
210,-7.2724,-1.9769,0.0508,0.1824,-0.5149,0.0294,-0.0515,0.1754
211,-7.4133,-2.3807,0.0271,0.1699,-0.5813,0.0110,-0.0319,0.1243
212,-7.5549,-2.7630,0.0113,0.1643,-0.6303,-0.0047,-0.0152,0.0852
213,-7.7289,-3.1183,0.0015,0.1648,-0.6695,-0.0172,-0.0098,0.0601
214,-7.9112,-3.4570,-0.0089,0.1697,-0.6983,-0.0292,-0.0051,0.0360
215,-8.1131,-3.7747,-0.0135,0.1764,-0.7205,-0.0386,-0.0036,0.0221
216,-8.3259,-4.0792,-0.0209,0.1836,-0.7364,-0.0430,-0.0015,0.0130
217,-8.5515,-4.3702,-0.0249,0.1899,-0.7477,-0.0458,-0.0008,0.0063
218,-8.8012,-4.6390,-0.0260,0.1945,-0.7553,-0.0463,-0.0001,0.0048
219,-9.0685,-4.8896,-0.0267,0.1984,-0.7611,-0.0467,0.0000,0.0034
220,-9.3377,-5.1347,-0.0243,0.2013,-0.7652,-0.0466,-0.0001,0.0017
221,-9.4939,-5.4469,-0.0237,0.2038,-0.7675,-0.0490,-0.0003,0.0009
222,-9.5031,-5.8019,-0.0210,0.2070,-0.7669,-0.0462,-0.0017,0.0009
351,9.2510,-5.7914,-0.0745,-0.2211,-0.7945,-0.0439,0.0002,0.0018
352,9.2360,-5.4713,-0.0743,-0.2179,-0.7938,-0.0445,0.0003,0.0023
353,9.2591,5.6950,-0.0806,-0.2103,0.7724,-0.0556,-0.0004,0.0022
425,8.9535,-5.6354,-0.0706,-0.2198,-0.7904,-0.0444,-0.0004,0.0041
426,9.0043,-5.2763,-0.0732,-0.2154,-0.7897,-0.0446,-0.0001,0.0029
427,9.0337,5.1765,-0.0793,-0.2059,0.7690,-0.0556,0.0000,0.0027
428,9.0755,5.4644,-0.0787,-0.2083,0.7704,-0.0548,-0.0001,0.0035
429,8.9724,5.8197,-0.0800,-0.2111,0.7709,-0.0564,-0.0009,0.0040
502,8.6573,-5.8094,-0.0680,-0.2210,-0.7870,-0.0436,-0.0019,0.0069
503,8.6724,-5.4349,-0.0700,-0.2174,-0.7849,-0.0443,-0.0011,0.0054
504,8.7188,-5.0664,-0.0688,-0.2125,-0.7843,-0.0441,-0.0005,0.0046
505,8.7241,4.9563,-0.0772,-0.2034,0.7640,-0.0551,-0.0006,0.0044
506,8.7084,5.2872,-0.0742,-0.2067,0.7648,-0.0542,-0.0005,0.0052
507,8.7041,5.6156,-0.0769,-0.2095,0.7666,-0.0549,-0.0012,0.0061
581,8.3517,-5.6135,-0.0694,-0.2188,-0.7800,-0.0436,-0.0029,0.0090
582,8.3719,-5.2319,-0.0690,-0.2145,-0.7774,-0.0431,-0.0018,0.0082
583,8.4079,-4.8440,-0.0657,-0.2092,-0.7751,-0.0433,-0.0013,0.0084
584,8.2625,-4.5313,-0.0651,-0.2031,-0.7673,-0.0420,-0.0020,0.0114
585,8.4208,4.7107,-0.0740,-0.1998,0.7552,-0.0531,-0.0017,0.0082
586,8.3831,5.0687,-0.0723,-0.2045,0.7570,-0.0538,-0.0021,0.0084
587,8.3741,5.4266,-0.0743,-0.2076,0.7603,-0.0543,-0.0027,0.0093
588,8.3721,5.7868,-0.0750,-0.2097,0.7632,-0.0546,-0.0035,0.0094
661,8.0273,-5.7965,-0.0662,-0.2189,-0.7758,-0.0431,-0.0049,0.0135
662,8.0376,-5.4219,-0.0657,-0.2157,-0.7709,-0.0429,-0.0043,0.0132
663,8.0531,-5.0505,-0.0656,-0.2115,-0.7665,-0.0430,-0.0037,0.0139
664,8.0131,-4.6986,-0.0647,-0.2057,-0.7597,-0.0425,-0.0039,0.0157
665,7.9988,-4.2951,-0.0645,-0.1974,-0.7524,-0.0396,-0.0033,0.0174
666,7.9789,4.1388,-0.0691,-0.1883,0.7319,-0.0486,-0.0038,0.0190
667,8.1115,4.4579,-0.0705,-0.1948,0.7427,-0.0508,-0.0030,0.0138
668,8.0679,4.8440,-0.0751,-0.2006,0.7464,-0.0520,-0.0039,0.0126
669,8.0503,5.2214,-0.0739,-0.2047,0.7506,-0.0527,-0.0044,0.0134
670,8.0468,5.5925,-0.0726,-0.2072,0.7557,-0.0527,-0.0053,0.0137
744,7.7021,-5.6022,-0.0661,-0.2156,-0.7651,-0.0418,-0.0071,0.0183
745,7.7105,-5.2322,-0.0635,-0.2119,-0.7582,-0.0410,-0.0069,0.0189
746,7.7023,-4.8679,-0.0629,-0.2071,-0.7507,-0.0406,-0.0070,0.0208
747,7.7004,-4.4907,-0.0618,-0.1999,-0.7422,-0.0380,-0.0065,0.0223
748,7.7256,-4.1101,-0.0584,-0.1922,-0.7345,-0.0369,-0.0058,0.0256
749,7.7149,-3.7913,-0.0557,-0.1844,-0.7243,-0.0331,-0.0060,0.0330
750,7.6498,3.5752,-0.0563,-0.1744,0.6982,-0.0385,-0.0081,0.0398
751,7.6990,3.9248,-0.0658,-0.1820,0.7124,-0.0447,-0.0064,0.0289
752,7.7128,4.3057,-0.0687,-0.1902,0.7230,-0.0481,-0.0064,0.0239
753,7.7466,4.6521,-0.0703,-0.1964,0.7323,-0.0496,-0.0061,0.0201
754,7.7294,5.0215,-0.0692,-0.2011,0.7385,-0.0503,-0.0065,0.0183
755,7.7206,5.3949,-0.0702,-0.2043,0.7452,-0.0508,-0.0071,0.0185
756,7.7189,5.7673,-0.0703,-0.2056,0.7520,-0.0512,-0.0074,0.0176
829,7.3696,-5.7806,-0.0629,-0.2138,-0.7595,-0.0403,-0.0101,0.0230
830,7.3744,-5.4075,-0.0616,-0.2110,-0.7507,-0.0405,-0.0095,0.0235
831,7.3759,-5.0371,-0.0590,-0.2065,-0.7421,-0.0397,-0.0098,0.0252
832,7.3769,-4.6622,-0.0603,-0.2007,-0.7319,-0.0367,-0.0094,0.0284
833,7.3873,-4.2827,-0.0570,-0.1934,-0.7210,-0.0353,-0.0090,0.0311
834,7.3874,-3.9055,-0.0543,-0.1842,-0.7081,-0.0315,-0.0099,0.0368
835,7.4530,-3.5079,-0.0480,-0.1754,-0.6962,-0.0269,-0.0099,0.0472
836,7.3673,-3.1204,-0.0364,-0.1685,-0.6682,-0.0164,-0.0141,0.0675
837,7.2813,-2.7340,-0.0221,-0.1660,-0.6319,-0.0017,-0.0245,0.0929
838,7.3211,2.9862,-0.0382,-0.1628,0.6445,-0.0220,-0.0164,0.0728
839,7.3704,3.3399,-0.0490,-0.1675,0.6696,-0.0320,-0.0121,0.0523
840,7.3651,3.7212,-0.0579,-0.1746,0.6867,-0.0383,-0.0095,0.0409
841,7.3876,4.0908,-0.0633,-0.1833,0.7015,-0.0439,-0.0094,0.0326
842,7.3934,4.4613,-0.0684,-0.1903,0.7128,-0.0468,-0.0096,0.0282
843,7.4003,4.8248,-0.0690,-0.1961,0.7228,-0.0483,-0.0097,0.0253
844,7.3936,5.1959,-0.0681,-0.1999,0.7316,-0.0488,-0.0097,0.0238
845,7.3904,5.5699,-0.0674,-0.2022,0.7401,-0.0499,-0.0093,0.0228
919,7.0410,-5.5835,-0.0586,-0.2089,-0.7445,-0.0382,-0.0119,0.0282
920,7.0438,-5.2092,-0.0581,-0.2053,-0.7341,-0.0382,-0.0123,0.0292
921,7.0477,-4.8331,-0.0577,-0.1998,-0.7226,-0.0360,-0.0126,0.0332
922,7.0550,-4.4549,-0.0549,-0.1936,-0.7094,-0.0354,-0.0131,0.0365
923,7.0617,-4.0756,-0.0513,-0.1851,-0.6952,-0.0318,-0.0128,0.0401
924,7.0863,-3.6893,-0.0488,-0.1753,-0.6799,-0.0263,-0.0124,0.0475
925,7.0799,-3.3214,-0.0411,-0.1668,-0.6596,-0.0193,-0.0137,0.0616
926,7.0348,-2.9318,-0.0282,-0.1606,-0.6297,-0.0093,-0.0186,0.0827
927,7.0413,-2.5185,-0.0127,-0.1609,-0.5919,0.0068,-0.0281,0.1116
928,7.0395,-2.1615,-0.0005,-0.1689,-0.5485,0.0221,-0.0405,0.1522
929,6.9807,-1.7670,0.0223,-0.1840,-0.4832,0.0438,-0.0628,0.2022
930,6.9600,1.8324,0.0154,-0.1752,0.4865,0.0311,-0.0605,0.1853
931,7.0277,2.2573,-0.0086,-0.1621,0.5532,0.0086,-0.0381,0.1373
932,7.1046,2.6802,-0.0280,-0.1584,0.6039,-0.0107,-0.0237,0.0985
933,7.0456,3.1029,-0.0395,-0.1591,0.6329,-0.0237,-0.0155,0.0704
934,7.0579,3.4898,-0.0512,-0.1667,0.6564,-0.0337,-0.0129,0.0532
935,7.0598,3.8742,-0.0562,-0.1745,0.6749,-0.0391,-0.0128,0.0434
936,7.0652,4.2496,-0.0605,-0.1828,0.6900,-0.0428,-0.0129,0.0364
937,7.0651,4.6228,-0.0650,-0.1891,0.7028,-0.0460,-0.0126,0.0330
938,7.0638,4.9951,-0.0672,-0.1942,0.7145,-0.0469,-0.0123,0.0307
939,7.0609,5.3701,-0.0654,-0.1976,0.7255,-0.0480,-0.0119,0.0286
940,7.0588,5.7452,-0.0668,-0.1994,0.7358,-0.0492,-0.0118,0.0272
1013,6.7098,-5.7595,-0.0557,-0.2059,-0.7392,-0.0387,-0.0148,0.0332
1014,6.7127,-5.3833,-0.0564,-0.2026,-0.7268,-0.0381,-0.0151,0.0338
1015,6.7174,-5.0058,-0.0534,-0.1978,-0.7140,-0.0355,-0.0151,0.0367
1016,6.7235,-4.6277,-0.0518,-0.1916,-0.6995,-0.0333,-0.0156,0.0408
1017,6.7308,-4.2471,-0.0507,-0.1837,-0.6836,-0.0310,-0.0157,0.0438
1018,6.7440,-3.8636,-0.0473,-0.1751,-0.6669,-0.0277,-0.0147,0.0490
1019,6.7492,-3.4858,-0.0412,-0.1656,-0.6469,-0.0212,-0.0144,0.0597
1020,6.7401,-3.1030,-0.0346,-0.1577,-0.6211,-0.0133,-0.0168,0.0752
1021,6.7362,-2.6992,-0.0204,-0.1523,-0.5879,-0.0008,-0.0224,0.0971
1022,6.7270,-2.2948,-0.0053,-0.1537,-0.5446,0.0141,-0.0317,0.1326
1023,6.7150,-1.8772,0.0151,-0.1627,-0.4850,0.0358,-0.0492,0.1847
1024,6.7798,-1.4028,0.0438,-0.1915,-0.3985,0.0637,-0.0804,0.2536
1025,6.7249,-0.9033,0.0734,-0.2250,-0.2755,0.0926,-0.1104,0.3199
1026,6.6760,-0.3733,0.0972,-0.2546,-0.1180,0.1152,-0.1326,0.3706
1027,6.6637,0.1681,0.1005,-0.2582,0.0545,0.1187,-0.1360,0.3762
1028,6.6943,0.6980,0.0805,-0.2330,0.2163,0.0968,-0.1178,0.3386
1029,6.7443,1.1841,0.0514,-0.2010,0.3452,0.0682,-0.0892,0.2785
1030,6.7259,1.5952,0.0280,-0.1720,0.4315,0.0441,-0.0652,0.2116
1031,6.7135,2.0481,0.0031,-0.1542,0.5047,0.0183,-0.0402,0.1560
1032,6.7547,2.4692,-0.0179,-0.1496,0.5584,-0.0014,-0.0266,0.1145
1033,6.7623,2.8609,-0.0335,-0.1512,0.5954,-0.0159,-0.0199,0.0842
1034,6.7416,3.2627,-0.0440,-0.1571,0.6224,-0.0274,-0.0162,0.0654
1035,6.7419,3.6510,-0.0507,-0.1649,0.6449,-0.0337,-0.0153,0.0537
1036,6.7394,4.0343,-0.0562,-0.1733,0.6637,-0.0389,-0.0150,0.0456
1037,6.7377,4.4129,-0.0583,-0.1808,0.6796,-0.0411,-0.0150,0.0406
1038,6.7347,4.7904,-0.0612,-0.1870,0.6942,-0.0442,-0.0152,0.0381
1039,6.7318,5.1675,-0.0629,-0.1915,0.7080,-0.0458,-0.0153,0.0350
1040,6.7294,5.5436,-0.0654,-0.1940,0.7204,-0.0479,-0.0150,0.0331
1114,6.3816,-5.5589,-0.0549,-0.1986,-0.7212,-0.0362,-0.0174,0.0388
1115,6.3859,-5.1804,-0.0528,-0.1948,-0.7064,-0.0351,-0.0172,0.0407
1116,6.3918,-4.8002,-0.0505,-0.1892,-0.6907,-0.0330,-0.0172,0.0440
1117,6.3991,-4.4188,-0.0480,-0.1821,-0.6736,-0.0307,-0.0169,0.0472
1118,6.4082,-4.0360,-0.0462,-0.1740,-0.6553,-0.0278,-0.0162,0.0512
1119,6.4166,-3.6540,-0.0404,-0.1647,-0.6354,-0.0227,-0.0158,0.0588
1120,6.4202,-3.2689,-0.0334,-0.1553,-0.6112,-0.0152,-0.0169,0.0712
1121,6.4233,-2.8739,-0.0253,-0.1473,-0.5807,-0.0069,-0.0198,0.0869
1122,6.4210,-2.4710,-0.0120,-0.1435,-0.5436,0.0061,-0.0253,0.1141
1123,6.4164,-2.0506,0.0041,-0.1448,-0.4906,0.0253,-0.0364,0.1553
1124,6.4358,-1.6027,0.0303,-0.1568,-0.4197,0.0493,-0.0562,0.2079
1125,6.4311,-1.1516,0.0570,-0.1782,-0.3259,0.0764,-0.0789,0.2706
1126,6.3966,-0.6582,0.0899,-0.2029,-0.1974,0.1068,-0.1046,0.3325
1127,6.3725,-0.1330,0.1060,-0.2182,-0.0398,0.1232,-0.1178,0.3643
1128,6.3789,0.3985,0.0992,-0.2112,0.1242,0.1142,-0.1104,0.3500
1129,6.4062,0.9016,0.0712,-0.1879,0.2644,0.0853,-0.0889,0.2981
1130,6.4178,1.3579,0.0410,-0.1629,0.3690,0.0564,-0.0655,0.2356
1131,6.4214,1.8018,0.0148,-0.1472,0.4503,0.0296,-0.0448,0.1768
1132,6.4267,2.2358,-0.0077,-0.1409,0.5100,0.0074,-0.0302,0.1319
1133,6.4357,2.6422,-0.0245,-0.1417,0.5546,-0.0079,-0.0224,0.0994
1134,6.4332,3.0360,-0.0363,-0.1471,0.5866,-0.0201,-0.0185,0.0771
1135,6.4225,3.4299,-0.0441,-0.1549,0.6130,-0.0281,-0.0168,0.0639
1136,6.4171,3.8169,-0.0510,-0.1634,0.6350,-0.0336,-0.0162,0.0538
1137,6.4123,4.2003,-0.0543,-0.1716,0.6538,-0.0377,-0.0167,0.0482
1138,6.4085,4.5818,-0.0552,-0.1784,0.6712,-0.0404,-0.0177,0.0451
1139,6.4040,4.9617,-0.0600,-0.1832,0.6876,-0.0421,-0.0180,0.0419
1140,6.4017,5.3399,-0.0607,-0.1871,0.7023,-0.0452,-0.0179,0.0389
1141,6.3995,5.7192,-0.0628,-0.1892,0.7168,-0.0461,-0.0179,0.0374
1214,6.0517,-5.7361,-0.0537,-0.1940,-0.7170,-0.0357,-0.0197,0.0424
1215,6.0555,-5.3556,-0.0511,-0.1907,-0.7005,-0.0340,-0.0195,0.0450
1216,6.0600,-4.9745,-0.0517,-0.1858,-0.6835,-0.0326,-0.0195,0.0470
1217,6.0670,-4.5926,-0.0478,-0.1794,-0.6653,-0.0298,-0.0193,0.0495
1218,6.0751,-4.2092,-0.0456,-0.1719,-0.6464,-0.0278,-0.0188,0.0538
1219,6.0832,-3.8246,-0.0416,-0.1635,-0.6252,-0.0234,-0.0185,0.0600
1220,6.0918,-3.4378,-0.0340,-0.1538,-0.6012,-0.0179,-0.0185,0.0684
1221,6.0990,-3.0460,-0.0286,-0.1442,-0.5732,-0.0116,-0.0189,0.0811
1222,6.1026,-2.6481,-0.0203,-0.1373,-0.5396,-0.0008,-0.0216,0.0997
1223,6.1057,-2.2376,-0.0028,-0.1338,-0.4956,0.0142,-0.0279,0.1316
1224,6.1120,-1.8087,0.0165,-0.1360,-0.4363,0.0346,-0.0387,0.1748
1225,6.1118,-1.3656,0.0448,-0.1461,-0.3570,0.0604,-0.0552,0.2280
1226,6.0985,-0.9020,0.0755,-0.1627,-0.2532,0.0906,-0.0773,0.2885
1227,6.0767,-0.4009,0.1020,-0.1790,-0.1166,0.1209,-0.0955,0.3369
1228,6.0699,0.1182,0.1091,-0.1835,0.0371,0.1270,-0.0991,0.3457
1229,6.0834,0.6271,0.0884,-0.1709,0.1822,0.1038,-0.0871,0.3135
1230,6.0980,1.1072,0.0558,-0.1520,0.3008,0.0709,-0.0662,0.2574
1231,6.1073,1.5613,0.0256,-0.1376,0.3925,0.0417,-0.0464,0.1986
1232,6.1120,1.9956,0.0022,-0.1317,0.4595,0.0176,-0.0331,0.1491
1233,6.1129,2.4130,-0.0149,-0.1316,0.5107,-0.0004,-0.0246,0.1150
1234,6.1109,2.8150,-0.0286,-0.1368,0.5485,-0.0138,-0.0203,0.0893
1235,6.1044,3.2090,-0.0400,-0.1443,0.5788,-0.0241,-0.0185,0.0740
1236,6.0955,3.5998,-0.0462,-0.1529,0.6045,-0.0295,-0.0176,0.0623
1237,6.0892,3.9863,-0.0497,-0.1614,0.6259,-0.0345,-0.0182,0.0555
1238,6.0830,4.3704,-0.0533,-0.1684,0.6462,-0.0366,-0.0191,0.0517
1239,6.0785,4.7526,-0.0551,-0.1743,0.6648,-0.0393,-0.0194,0.0483
1240,6.0746,5.1349,-0.0578,-0.1790,0.6822,-0.0423,-0.0196,0.0446
1241,6.0723,5.5151,-0.0595,-0.1818,0.6981,-0.0440,-0.0198,0.0425
1315,5.7270,-5.5330,-0.0486,-0.1853,-0.6966,-0.0334,-0.0220,0.0481
1316,5.7313,-5.1502,-0.0476,-0.1814,-0.6778,-0.0327,-0.0215,0.0505
1317,5.7371,-4.7676,-0.0455,-0.1756,-0.6587,-0.0299,-0.0210,0.0519
1318,5.7441,-4.3842,-0.0437,-0.1686,-0.6392,-0.0272,-0.0207,0.0554
1319,5.7517,-3.9983,-0.0416,-0.1608,-0.6171,-0.0241,-0.0204,0.0617
1320,5.7606,-3.6107,-0.0373,-0.1513,-0.5928,-0.0193,-0.0199,0.0674
1321,5.7694,-3.2199,-0.0324,-0.1417,-0.5663,-0.0144,-0.0195,0.0770
1322,5.7767,-2.8242,-0.0236,-0.1334,-0.5342,-0.0051,-0.0209,0.0920
1323,5.7832,-2.4211,-0.0107,-0.1267,-0.4957,0.0072,-0.0246,0.1138
1324,5.7896,-2.0047,0.0072,-0.1236,-0.4462,0.0232,-0.0308,0.1479
1325,5.7904,-1.5736,0.0290,-0.1265,-0.3795,0.0449,-0.0412,0.1939
1326,5.7849,-1.1227,0.0567,-0.1341,-0.2911,0.0736,-0.0559,0.2474
1327,5.7750,-0.6459,0.0896,-0.1445,-0.1772,0.1065,-0.0729,0.3008
1328,5.7656,-0.1426,0.1095,-0.1529,-0.0381,0.1260,-0.0839,0.3286
1329,5.7679,0.3634,0.1016,-0.1500,0.1040,0.1178,-0.0798,0.3182
1330,5.7784,0.8549,0.0709,-0.1380,0.2317,0.0865,-0.0648,0.2758
1331,5.7874,1.3187,0.0386,-0.1274,0.3322,0.0533,-0.0480,0.2196
1332,5.7923,1.7591,0.0122,-0.1217,0.4078,0.0269,-0.0352,0.1662
1333,5.7927,2.1810,-0.0057,-0.1217,0.4643,0.0075,-0.0265,0.1293
1334,5.7889,2.5901,-0.0192,-0.1261,0.5084,-0.0062,-0.0219,0.1029
1335,5.7830,2.9890,-0.0304,-0.1331,0.5434,-0.0165,-0.0203,0.0838
1336,5.7746,3.3821,-0.0406,-0.1419,0.5721,-0.0256,-0.0193,0.0707
1337,5.7662,3.7707,-0.0455,-0.1507,0.5966,-0.0306,-0.0195,0.0626
1338,5.7598,4.1581,-0.0482,-0.1580,0.6194,-0.0336,-0.0203,0.0582
1339,5.7537,4.5433,-0.0512,-0.1649,0.6401,-0.0367,-0.0207,0.0539
1340,5.7490,4.9268,-0.0544,-0.1696,0.6598,-0.0387,-0.0210,0.0510
1341,5.7455,5.3098,-0.0570,-0.1736,0.6783,-0.0414,-0.0211,0.0477
1342,5.7438,5.6908,-0.0584,-0.1757,0.6954,-0.0430,-0.0210,0.0455
1415,5.3987,-5.7114,-0.0490,-0.1790,-0.6934,-0.0331,-0.0233,0.0504
1416,5.4016,-5.3283,-0.0491,-0.1759,-0.6743,-0.0317,-0.0233,0.0530
1417,5.4071,-4.9443,-0.0458,-0.1712,-0.6540,-0.0302,-0.0229,0.0552
1418,5.4135,-4.5593,-0.0432,-0.1649,-0.6330,-0.0270,-0.0221,0.0576
1419,5.4214,-4.1739,-0.0399,-0.1575,-0.6108,-0.0244,-0.0216,0.0626
1420,5.4295,-3.7853,-0.0372,-0.1490,-0.5859,-0.0207,-0.0204,0.0677
1421,5.4382,-3.3953,-0.0341,-0.1397,-0.5597,-0.0162,-0.0194,0.0742
1422,5.4478,-3.0020,-0.0253,-0.1303,-0.5299,-0.0084,-0.0205,0.0865
1423,5.4567,-2.6023,-0.0155,-0.1214,-0.4939,0.0013,-0.0229,0.1032
1424,5.4637,-2.1934,-0.0027,-0.1153,-0.4502,0.0143,-0.0269,0.1281
1425,5.4683,-1.7733,0.0160,-0.1124,-0.3943,0.0320,-0.0341,0.1638
1426,5.4682,-1.3361,0.0423,-0.1142,-0.3211,0.0569,-0.0440,0.2120
1427,5.4629,-0.8760,0.0737,-0.1204,-0.2241,0.0883,-0.0558,0.2629
1428,5.4569,-0.3922,0.1015,-0.1261,-0.1038,0.1172,-0.0664,0.3031
1429,5.4552,0.1059,0.1095,-0.1283,0.0306,0.1234,-0.0690,0.3112
1430,5.4603,0.5995,0.0892,-0.1236,0.1604,0.1002,-0.0610,0.2869
1431,5.4673,1.0723,0.0557,-0.1156,0.2694,0.0676,-0.0481,0.2387
1432,5.4710,1.5222,0.0250,-0.1109,0.3549,0.0387,-0.0369,0.1862
1433,5.4710,1.9498,0.0032,-0.1109,0.4172,0.0168,-0.0289,0.1429
1434,5.4666,2.3624,-0.0144,-0.1153,0.4660,-0.0004,-0.0239,0.1147
1435,5.4610,2.7669,-0.0252,-0.1217,0.5060,-0.0121,-0.0214,0.0946
1436,5.4525,3.1632,-0.0359,-0.1301,0.5381,-0.0208,-0.0208,0.0789
1437,5.4437,3.5549,-0.0422,-0.1392,0.5654,-0.0266,-0.0211,0.0694
1438,5.4371,3.9441,-0.0441,-0.1471,0.5906,-0.0311,-0.0216,0.0646
1439,5.4302,4.3319,-0.0485,-0.1540,0.6141,-0.0340,-0.0223,0.0597
1440,5.4252,4.7173,-0.0501,-0.1598,0.6355,-0.0368,-0.0231,0.0561
1441,5.4208,5.1022,-0.0526,-0.1644,0.6560,-0.0389,-0.0234,0.0536
1442,5.4178,5.4854,-0.0559,-0.1675,0.6757,-0.0417,-0.0231,0.0509
1516,5.0742,-5.5074,-0.0471,-0.1695,-0.6720,-0.0308,-0.0248,0.0553
1517,5.0783,-5.1232,-0.0456,-0.1655,-0.6508,-0.0289,-0.0250,0.0577
1518,5.0844,-4.7370,-0.0417,-0.1603,-0.6288,-0.0266,-0.0243,0.0604
1519,5.0915,-4.3498,-0.0397,-0.1535,-0.6053,-0.0248,-0.0230,0.0639
1520,5.0994,-3.9618,-0.0369,-0.1458,-0.5807,-0.0219,-0.0219,0.0678
1521,5.1076,-3.5721,-0.0329,-0.1375,-0.5545,-0.0176,-0.0213,0.0738
1522,5.1173,-3.1787,-0.0271,-0.1278,-0.5250,-0.0116,-0.0211,0.0825
1523,5.1273,-2.7820,-0.0192,-0.1181,-0.4918,-0.0042,-0.0210,0.0953
1524,5.1359,-2.3784,-0.0095,-0.1097,-0.4524,0.0063,-0.0228,0.1147
1525,5.1429,-1.9651,0.0053,-0.1032,-0.4031,0.0213,-0.0274,0.1418
1526,5.1475,-1.5398,0.0292,-0.1004,-0.3418,0.0418,-0.0342,0.1811
1527,5.1470,-1.0941,0.0569,-0.1015,-0.2595,0.0694,-0.0435,0.2279
