# Name : Kerbbereich
# Stage: 42
# Units: length:mm angle:deg time:s 
id,x,y,z,displacement_x,displacement_y,displacement_z,epsilon_x,epsilon_y
39,9.6661,-4.9654,-0.0339,-0.0809,-0.2207,-0.0068,-0.0003,0.0007
40,9.5509,-4.6336,-0.0317,-0.0782,-0.2192,-0.0070,-0.0005,0.0014
41,9.2552,-4.3984,-0.0282,-0.0758,-0.2164,-0.0069,0.0001,0.0010
42,8.9628,-4.1571,-0.0267,-0.0736,-0.2128,-0.0076,-0.0001,0.0019
43,8.6868,-3.8996,-0.0260,-0.0706,-0.2083,-0.0073,-0.0005,0.0032
44,8.4354,-3.6167,-0.0244,-0.0671,-0.2024,-0.0065,-0.0013,0.0053
45,8.2139,-3.3135,-0.0232,-0.0629,-0.1945,-0.0049,-0.0015,0.0095
46,8.0203,-2.9903,-0.0163,-0.0585,-0.1848,-0.0012,-0.0020,0.0157
47,7.8418,-2.6551,-0.0097,-0.0547,-0.1725,0.0020,-0.0030,0.0228
48,7.6866,-2.3090,-0.0003,-0.0522,-0.1568,0.0071,-0.0067,0.0320
49,7.5535,-1.9478,0.0009,-0.0503,-0.1383,0.0122,-0.0111,0.0426
50,7.4346,-1.5792,0.0041,-0.0501,-0.1161,0.0160,-0.0169,0.0526
51,7.3429,-1.2013,0.0108,-0.0503,-0.0915,0.0196,-0.0230,0.0642
52,7.2693,-0.8144,0.0143,-0.0508,-0.0638,0.0232,-0.0251,0.0694
53,7.2272,-0.4233,0.0163,-0.0515,-0.0343,0.0240,-0.0275,0.0762
54,7.2094,-0.0276,0.0132,-0.0518,-0.0031,0.0247,-0.0293,0.0777
55,7.2009,0.3656,0.0119,-0.0516,0.0271,0.0228,-0.0303,0.0761
56,7.2275,0.7593,0.0062,-0.0505,0.0566,0.0219,-0.0259,0.0716
57,7.2757,1.1493,0.0026,-0.0496,0.0840,0.0182,-0.0224,0.0630
58,7.3647,1.5300,-0.0047,-0.0489,0.1089,0.0144,-0.0165,0.0530
59,7.4734,1.9022,-0.0092,-0.0491,0.1306,0.0096,-0.0114,0.0421
60,7.6111,2.2626,-0.0146,-0.0503,0.1493,0.0046,-0.0084,0.0343
61,7.7709,2.6108,-0.0203,-0.0534,0.1652,-0.0002,-0.0053,0.0217
62,7.9595,2.9422,-0.0241,-0.0569,0.1776,-0.0039,-0.0023,0.0159
63,8.1723,3.2568,-0.0304,-0.0611,0.1878,-0.0084,-0.0024,0.0105
64,8.4127,3.5503,-0.0319,-0.0649,0.1960,-0.0087,-0.0011,0.0058
65,8.6653,3.8314,-0.0364,-0.0684,0.2016,-0.0094,-0.0011,0.0034
66,8.9365,4.0982,-0.0377,-0.0715,0.2061,-0.0110,-0.0004,0.0016
67,9.2228,4.3503,-0.0380,-0.0740,0.2096,-0.0108,-0.0002,0.0005
68,9.5228,4.5883,-0.0351,-0.0759,0.2124,-0.0103,0.0003,0.0012
69,9.6136,4.9342,-0.0359,-0.0785,0.2132,-0.0103,0.0004,0.0004
70,9.6176,5.2996,-0.0401,-0.0812,0.2134,-0.0110,-0.0012,0.0008
190,-9.6360,5.1426,0.0073,0.0823,0.2228,-0.0128,0.0001,0.0011
191,-9.6252,4.7860,0.0053,0.0790,0.2220,-0.0145,0.0028,0.0009
192,-9.4271,4.4999,0.0125,0.0769,0.2205,-0.0129,0.0004,0.0001
193,-9.1391,4.2777,0.0082,0.0748,0.2172,-0.0123,0.0012,0.0011
194,-8.8654,4.0363,0.0075,0.0723,0.2129,-0.0125,0.0006,0.0037
195,-8.6182,3.7685,0.0107,0.0691,0.2083,-0.0106,0.0000,0.0039
196,-8.3902,3.4832,0.0117,0.0654,0.2025,-0.0099,-0.0013,0.0066
197,-8.1879,3.1797,0.0137,0.0609,0.1942,-0.0077,-0.0015,0.0121
198,-8.0024,2.8618,0.0186,0.0573,0.1837,-0.0037,-0.0026,0.0173
199,-7.8273,2.5361,0.0228,0.0537,0.1711,-0.0002,-0.0072,0.0246
200,-7.6801,2.1931,0.0246,0.0515,0.1551,0.0055,-0.0116,0.0343
201,-7.5545,1.8381,0.0344,0.0498,0.1361,0.0101,-0.0148,0.0461
202,-7.4409,1.4763,0.0367,0.0490,0.1138,0.0160,-0.0169,0.0545
203,-7.3536,1.1025,0.0385,0.0492,0.0884,0.0191,-0.0222,0.0632
204,-7.2791,0.7252,0.0402,0.0501,0.0618,0.0239,-0.0274,0.0694
205,-7.2203,0.3422,0.0421,0.0492,0.0328,0.0243,-0.0280,0.0770
206,-7.1917,-0.0441,0.0423,0.0487,0.0027,0.0250,-0.0283,0.0753
207,-7.2069,-0.4320,0.0444,0.0485,-0.0258,0.0246,-0.0280,0.0726
208,-7.2496,-0.8157,0.0416,0.0471,-0.0541,0.0220,-0.0240,0.0717
209,-7.3252,-1.1935,0.0394,0.0476,-0.0811,0.0203,-0.0210,0.0622
210,-7.4064,-1.5672,0.0387,0.0475,-0.1055,0.0151,-0.0166,0.0540
211,-7.5338,-1.9267,0.0303,0.0484,-0.1276,0.0119,-0.0123,0.0424
212,-7.6685,-2.2782,0.0268,0.0495,-0.1457,0.0083,-0.0077,0.0331
213,-7.8404,-2.6108,0.0247,0.0521,-0.1622,0.0034,-0.0055,0.0244
214,-8.0243,-2.9332,0.0217,0.0554,-0.1746,-0.0014,-0.0027,0.0160
215,-8.2292,-3.2391,0.0233,0.0591,-0.1850,-0.0047,-0.0014,0.0098
216,-8.4450,-3.5355,0.0180,0.0631,-0.1928,-0.0069,0.0000,0.0065
217,-8.6736,-3.8210,0.0151,0.0665,-0.1986,-0.0087,-0.0003,0.0034
218,-8.9247,-4.0863,0.0153,0.0697,-0.2027,-0.0078,0.0003,0.0033
219,-9.1935,-4.3348,0.0143,0.0721,-0.2064,-0.0085,-0.0001,0.0025
220,-9.4633,-4.5785,0.0176,0.0743,-0.2091,-0.0076,-0.0011,0.0013
221,-9.6194,-4.8905,0.0204,0.0770,-0.2113,-0.0077,-0.0013,0.0002
222,-9.6300,-5.2452,0.0192,0.0788,-0.2102,-0.0089,0.0010,0.0001
351,9.3908,-5.2159,-0.0347,-0.0827,-0.2185,-0.0072,-0.0001,0.0010
352,9.3749,-4.8963,-0.0335,-0.0804,-0.2182,-0.0067,0.0001,0.0014
353,9.3881,5.1337,-0.0383,-0.0800,0.2117,-0.0104,0.0003,0.0008
425,9.0928,-5.0617,-0.0308,-0.0819,-0.2161,-0.0076,-0.0004,0.0019
426,9.1425,-4.7028,-0.0323,-0.0787,-0.2157,-0.0068,-0.0002,0.0020
427,9.1619,4.6161,-0.0378,-0.0763,0.2092,-0.0112,-0.0002,0.0023
428,9.2040,4.9040,-0.0375,-0.0784,0.2105,-0.0107,0.0000,0.0018
429,9.1013,5.2584,-0.0382,-0.0809,0.2101,-0.0117,-0.0005,0.0014
502,8.7969,-5.2365,-0.0283,-0.0827,-0.2135,-0.0069,-0.0009,0.0031
503,8.8113,-4.8633,-0.0294,-0.0799,-0.2127,-0.0066,-0.0006,0.0027
504,8.8558,-4.4950,-0.0294,-0.0769,-0.2123,-0.0077,-0.0001,0.0025
505,8.8518,4.3974,-0.0353,-0.0743,0.2056,-0.0103,-0.0003,0.0024
506,8.8369,4.7282,-0.0333,-0.0769,0.2064,-0.0104,-0.0006,0.0031
507,8.8329,5.0558,-0.0359,-0.0793,0.2073,-0.0110,-0.0010,0.0027
581,8.4906,-5.0438,-0.0303,-0.0813,-0.2097,-0.0076,-0.0014,0.0041
582,8.5097,-4.6636,-0.0297,-0.0781,-0.2085,-0.0069,-0.0008,0.0039
583,8.5436,-4.2769,-0.0265,-0.0749,-0.2074,-0.0070,-0.0004,0.0043
584,8.3957,-3.9677,-0.0264,-0.0713,-0.2032,-0.0062,-0.0006,0.0053
585,8.5473,4.1559,-0.0330,-0.0720,0.2010,-0.0093,-0.0010,0.0038
586,8.5111,4.5130,-0.0311,-0.0752,0.2019,-0.0097,-0.0010,0.0040
587,8.5026,4.8689,-0.0329,-0.0777,0.2032,-0.0100,-0.0013,0.0042
588,8.5006,5.2277,-0.0337,-0.0799,0.2047,-0.0104,-0.0016,0.0045
661,8.1659,-5.2282,-0.0275,-0.0817,-0.2070,-0.0074,-0.0025,0.0062
662,8.1755,-4.8562,-0.0271,-0.0792,-0.2047,-0.0073,-0.0020,0.0059
663,8.1894,-4.4875,-0.0267,-0.0765,-0.2029,-0.0071,-0.0015,0.0063
664,8.1470,-4.1389,-0.0267,-0.0732,-0.1995,-0.0074,-0.0020,0.0076
665,8.1293,-3.7393,-0.0272,-0.0683,-0.1960,-0.0052,-0.0019,0.0078
666,8.1007,3.5956,-0.0311,-0.0652,0.1892,-0.0078,-0.0019,0.0089
667,8.2363,3.9093,-0.0302,-0.0687,0.1946,-0.0076,-0.0014,0.0062
668,8.1945,4.2932,-0.0351,-0.0728,0.1961,-0.0091,-0.0016,0.0058
669,8.1779,4.6683,-0.0333,-0.0758,0.1981,-0.0092,-0.0017,0.0061
670,8.1744,5.0364,-0.0323,-0.0783,0.2002,-0.0095,-0.0021,0.0063
744,7.8395,-5.0388,-0.0283,-0.0796,-0.2011,-0.0069,-0.0032,0.0086
745,7.8466,-4.6726,-0.0264,-0.0772,-0.1981,-0.0070,-0.0032,0.0083
746,7.8366,-4.3125,-0.0257,-0.0741,-0.1948,-0.0064,-0.0035,0.0093
747,7.8319,-3.9399,-0.0260,-0.0697,-0.1909,-0.0050,-0.0033,0.0101
748,7.8536,-3.5635,-0.0229,-0.0655,-0.1874,-0.0044,-0.0029,0.0114
749,7.8390,-3.2506,-0.0229,-0.0615,-0.1831,-0.0032,-0.0027,0.0145
750,7.7654,3.0498,-0.0249,-0.0575,0.1733,-0.0044,-0.0036,0.0172
751,7.8181,3.3916,-0.0306,-0.0617,0.1798,-0.0067,-0.0030,0.0132
752,7.8352,3.7668,-0.0307,-0.0666,0.1846,-0.0073,-0.0028,0.0107
753,7.8712,4.1080,-0.0316,-0.0704,0.1888,-0.0081,-0.0027,0.0089
754,7.8554,4.4739,-0.0312,-0.0739,0.1914,-0.0094,-0.0029,0.0084
755,7.8472,4.8439,-0.0314,-0.0764,0.1947,-0.0091,-0.0031,0.0086
756,7.8450,5.2125,-0.0309,-0.0782,0.1977,-0.0089,-0.0032,0.0079
829,7.5053,-5.2198,-0.0265,-0.0795,-0.1982,-0.0068,-0.0045,0.0104
830,7.5096,-4.8515,-0.0250,-0.0771,-0.1942,-0.0068,-0.0043,0.0106
831,7.5096,-4.4858,-0.0228,-0.0742,-0.1902,-0.0063,-0.0047,0.0110
832,7.5081,-4.1168,-0.0260,-0.0707,-0.1859,-0.0052,-0.0045,0.0126
833,7.5154,-3.7434,-0.0231,-0.0665,-0.1812,-0.0042,-0.0041,0.0140
834,7.5112,-3.3731,-0.0220,-0.0617,-0.1753,-0.0019,-0.0046,0.0165
835,7.5724,-2.9823,-0.0192,-0.0572,-0.1702,-0.0009,-0.0046,0.0202
836,7.4844,-2.6109,-0.0144,-0.0527,-0.1583,0.0030,-0.0068,0.0273
837,7.3992,-2.2465,-0.0097,-0.0493,-0.1441,0.0081,-0.0099,0.0347
838,7.4327,2.4916,-0.0176,-0.0501,0.1503,0.0012,-0.0077,0.0289
839,7.4828,2.8303,-0.0214,-0.0538,0.1605,-0.0017,-0.0060,0.0217
840,7.4804,3.2019,-0.0258,-0.0581,0.1678,-0.0035,-0.0043,0.0181
841,7.5066,3.5633,-0.0284,-0.0631,0.1745,-0.0063,-0.0043,0.0146
842,7.5155,3.9274,-0.0316,-0.0670,0.1794,-0.0073,-0.0047,0.0125
843,7.5243,4.2853,-0.0318,-0.0708,0.1840,-0.0083,-0.0050,0.0112
844,7.5185,4.6515,-0.0299,-0.0737,0.1878,-0.0078,-0.0048,0.0109
845,7.5152,5.0209,-0.0290,-0.0761,0.1917,-0.0086,-0.0044,0.0102
919,7.1744,-5.0301,-0.0234,-0.0767,-0.1905,-0.0059,-0.0053,0.0123
920,7.1762,-4.6619,-0.0227,-0.0742,-0.1862,-0.0057,-0.0056,0.0124
921,7.1782,-4.2925,-0.0231,-0.0705,-0.1815,-0.0042,-0.0059,0.0148
922,7.1829,-3.9213,-0.0210,-0.0671,-0.1753,-0.0042,-0.0062,0.0164
923,7.1856,-3.5500,-0.0191,-0.0624,-0.1691,-0.0023,-0.0063,0.0180
924,7.2053,-3.1721,-0.0205,-0.0575,-0.1622,-0.0007,-0.0064,0.0209
925,7.1953,-2.8160,-0.0162,-0.0526,-0.1538,0.0029,-0.0070,0.0253
926,7.1483,-2.4442,-0.0112,-0.0483,-0.1418,0.0051,-0.0087,0.0319
927,7.1575,-2.0550,-0.0071,-0.0457,-0.1282,0.0100,-0.0108,0.0398
928,7.1642,-1.7273,-0.0070,-0.0452,-0.1140,0.0134,-0.0135,0.0479
929,7.1210,-1.3795,-0.0014,-0.0446,-0.0955,0.0180,-0.0187,0.0558
930,7.0906,1.4413,-0.0023,-0.0438,0.0957,0.0154,-0.0186,0.0544
931,7.1443,1.8199,-0.0085,-0.0445,0.1160,0.0110,-0.0136,0.0450
932,7.2156,2.2095,-0.0150,-0.0463,0.1336,0.0047,-0.0096,0.0361
933,7.1548,2.6139,-0.0170,-0.0488,0.1443,0.0013,-0.0071,0.0280
934,7.1695,2.9867,-0.0222,-0.0540,0.1538,-0.0021,-0.0065,0.0225
935,7.1745,3.3605,-0.0243,-0.0586,0.1618,-0.0045,-0.0066,0.0194
936,7.1836,3.7278,-0.0267,-0.0632,0.1687,-0.0064,-0.0061,0.0163
937,7.1861,4.0937,-0.0290,-0.0669,0.1743,-0.0074,-0.0058,0.0146
938,7.1864,4.4594,-0.0306,-0.0703,0.1794,-0.0076,-0.0055,0.0135
939,7.1840,4.8283,-0.0283,-0.0732,0.1842,-0.0081,-0.0053,0.0128
940,7.1816,5.1976,-0.0289,-0.0754,0.1888,-0.0084,-0.0054,0.0121
1013,6.8410,-5.2087,-0.0203,-0.0760,-0.1880,-0.0062,-0.0064,0.0143
1014,6.8432,-4.8395,-0.0213,-0.0733,-0.1825,-0.0058,-0.0069,0.0146
1015,6.8461,-4.4694,-0.0203,-0.0703,-0.1771,-0.0051,-0.0067,0.0161
1016,6.8499,-4.0993,-0.0189,-0.0664,-0.1706,-0.0031,-0.0069,0.0182
1017,6.8535,-3.7277,-0.0189,-0.0622,-0.1638,-0.0019,-0.0073,0.0193
1018,6.8629,-3.3536,-0.0172,-0.0574,-0.1564,-0.0003,-0.0073,0.0218
1019,6.8633,-2.9869,-0.0160,-0.0526,-0.1476,0.0014,-0.0073,0.0252
1020,6.8511,-2.6196,-0.0147,-0.0477,-0.1374,0.0040,-0.0078,0.0294
1021,6.8460,-2.2367,-0.0095,-0.0436,-0.1250,0.0076,-0.0092,0.0356
1022,6.8401,-1.8606,-0.0065,-0.0415,-0.1101,0.0107,-0.0117,0.0433
1023,6.8386,-1.4853,-0.0029,-0.0400,-0.0928,0.0157,-0.0148,0.0517
1024,6.9312,-1.0771,0.0019,-0.0409,-0.0727,0.0201,-0.0204,0.0608
1025,6.9086,-0.6755,0.0033,-0.0419,-0.0476,0.0213,-0.0236,0.0670
1026,6.8886,-0.2756,0.0048,-0.0422,-0.0203,0.0223,-0.0252,0.0712
1027,6.8800,0.1204,0.0041,-0.0418,0.0068,0.0225,-0.0259,0.0715
1028,6.8851,0.5156,0.0040,-0.0418,0.0339,0.0213,-0.0246,0.0699
1029,6.9030,0.8983,-0.0002,-0.0417,0.0595,0.0180,-0.0220,0.0649
1030,6.8574,1.2423,-0.0009,-0.0398,0.0788,0.0170,-0.0189,0.0562
1031,6.8272,1.6417,-0.0040,-0.0396,0.0986,0.0132,-0.0137,0.0477
1032,6.8615,2.0260,-0.0111,-0.0418,0.1156,0.0077,-0.0104,0.0393
1033,6.8678,2.3939,-0.0166,-0.0446,0.1287,0.0034,-0.0081,0.0320
1034,6.8484,2.7790,-0.0203,-0.0491,0.1392,-0.0011,-0.0073,0.0266
1035,6.8524,3.1543,-0.0212,-0.0533,0.1485,-0.0017,-0.0077,0.0231
1036,6.8532,3.5268,-0.0244,-0.0583,0.1566,-0.0044,-0.0076,0.0199
1037,6.8544,3.8963,-0.0258,-0.0629,0.1635,-0.0059,-0.0070,0.0179
1038,6.8538,4.2657,-0.0266,-0.0666,0.1700,-0.0069,-0.0066,0.0167
1039,6.8519,4.6347,-0.0278,-0.0702,0.1758,-0.0079,-0.0068,0.0153
1040,6.8498,5.0039,-0.0285,-0.0723,0.1812,-0.0082,-0.0069,0.0145
1114,6.5094,-5.0177,-0.0214,-0.0721,-0.1794,-0.0056,-0.0077,0.0169
1115,6.5125,-4.6476,-0.0201,-0.0694,-0.1731,-0.0052,-0.0076,0.0176
1116,6.5162,-4.2763,-0.0184,-0.0661,-0.1663,-0.0037,-0.0077,0.0192
1117,6.5204,-3.9047,-0.0167,-0.0620,-0.1590,-0.0020,-0.0078,0.0206
1118,6.5260,-3.5322,-0.0161,-0.0574,-0.1511,-0.0004,-0.0075,0.0222
1119,6.5299,-3.1616,-0.0147,-0.0525,-0.1426,0.0004,-0.0075,0.0252
1120,6.5293,-2.7906,-0.0123,-0.0473,-0.1325,0.0033,-0.0079,0.0286
1121,6.5290,-2.4147,-0.0105,-0.0427,-0.1211,0.0055,-0.0083,0.0322
1122,6.5265,-2.0358,-0.0070,-0.0391,-0.1082,0.0089,-0.0096,0.0383
1123,6.5260,-1.6523,-0.0057,-0.0362,-0.0921,0.0134,-0.0115,0.0456
1124,6.5583,-1.2570,-0.0009,-0.0350,-0.0740,0.0162,-0.0140,0.0519
1125,6.5753,-0.8800,0.0009,-0.0346,-0.0542,0.0189,-0.0167,0.0573
1126,6.5653,-0.4925,0.0039,-0.0346,-0.0317,0.0199,-0.0194,0.0620
1127,6.5561,-0.1007,0.0033,-0.0347,-0.0076,0.0202,-0.0204,0.0643
1128,6.5554,0.2914,0.0048,-0.0345,0.0170,0.0204,-0.0197,0.0640
1129,6.5587,0.6779,0.0027,-0.0349,0.0406,0.0180,-0.0188,0.0611
1130,6.5458,1.0504,-0.0003,-0.0343,0.0615,0.0166,-0.0165,0.0556
1131,6.5328,1.4322,-0.0026,-0.0349,0.0809,0.0141,-0.0133,0.0489
1132,6.5299,1.8236,-0.0072,-0.0368,0.0981,0.0101,-0.0110,0.0421
1133,6.5365,2.2001,-0.0133,-0.0399,0.1128,0.0056,-0.0089,0.0355
1134,6.5353,2.5734,-0.0168,-0.0440,0.1244,0.0018,-0.0079,0.0297
1135,6.5278,2.9513,-0.0196,-0.0486,0.1348,-0.0011,-0.0077,0.0263
1136,6.5263,3.3255,-0.0224,-0.0531,0.1441,-0.0024,-0.0077,0.0228
1137,6.5247,3.6979,-0.0234,-0.0580,0.1518,-0.0043,-0.0084,0.0205
1138,6.5235,4.0693,-0.0229,-0.0623,0.1591,-0.0055,-0.0084,0.0195
1139,6.5203,4.4398,-0.0267,-0.0657,0.1661,-0.0062,-0.0084,0.0181
1140,6.5191,4.8096,-0.0255,-0.0684,0.1725,-0.0073,-0.0082,0.0167
1141,6.5168,5.1804,-0.0276,-0.0706,0.1786,-0.0081,-0.0079,0.0163
1214,6.1763,-5.1964,-0.0205,-0.0707,-0.1768,-0.0054,-0.0084,0.0183
1215,6.1793,-4.8253,-0.0196,-0.0682,-0.1697,-0.0053,-0.0082,0.0192
1216,6.1819,-4.4541,-0.0207,-0.0650,-0.1626,-0.0043,-0.0084,0.0199
1217,6.1864,-4.0829,-0.0177,-0.0611,-0.1551,-0.0023,-0.0088,0.0213
1218,6.1914,-3.7102,-0.0165,-0.0567,-0.1470,-0.0012,-0.0087,0.0230
1219,6.1954,-3.3381,-0.0151,-0.0523,-0.1383,0.0006,-0.0084,0.0251
1220,6.1995,-2.9654,-0.0117,-0.0472,-0.1284,0.0020,-0.0082,0.0278
1221,6.2022,-2.5907,-0.0112,-0.0422,-0.1176,0.0035,-0.0080,0.0304
1222,6.2031,-2.2146,-0.0107,-0.0378,-0.1058,0.0066,-0.0086,0.0340
1223,6.2060,-1.8344,-0.0057,-0.0344,-0.0921,0.0092,-0.0094,0.0401
1224,6.2168,-1.4484,-0.0036,-0.0320,-0.0758,0.0127,-0.0106,0.0458
1225,6.2286,-1.0669,0.0008,-0.0301,-0.0583,0.0148,-0.0125,0.0497
1226,6.2322,-0.6880,0.0021,-0.0295,-0.0393,0.0162,-0.0144,0.0538
1227,6.2276,-0.3024,0.0009,-0.0284,-0.0183,0.0192,-0.0162,0.0574
1228,6.2249,0.0851,0.0003,-0.0285,0.0038,0.0185,-0.0165,0.0579
1229,6.2251,0.4701,0.0012,-0.0288,0.0251,0.0174,-0.0158,0.0562
1230,6.2202,0.8518,0.0001,-0.0292,0.0454,0.0165,-0.0143,0.0534
1231,6.2140,1.2332,-0.0045,-0.0302,0.0645,0.0133,-0.0122,0.0486
1232,6.2109,1.6174,-0.0063,-0.0319,0.0816,0.0110,-0.0108,0.0432
1233,6.2087,1.9990,-0.0091,-0.0349,0.0969,0.0075,-0.0095,0.0380
1234,6.2077,2.3761,-0.0135,-0.0391,0.1099,0.0036,-0.0085,0.0324
1235,6.2040,2.7507,-0.0180,-0.0436,0.1209,0.0003,-0.0081,0.0286
1236,6.1992,3.1258,-0.0202,-0.0481,0.1309,-0.0012,-0.0077,0.0254
1237,6.1968,3.4997,-0.0207,-0.0527,0.1397,-0.0030,-0.0081,0.0233
1238,6.1934,3.8720,-0.0232,-0.0568,0.1482,-0.0040,-0.0089,0.0219
1239,6.1906,4.2434,-0.0237,-0.0610,0.1560,-0.0052,-0.0091,0.0206
1240,6.1881,4.6156,-0.0246,-0.0643,0.1634,-0.0064,-0.0088,0.0190
1241,6.1859,4.9864,-0.0254,-0.0669,0.1699,-0.0071,-0.0084,0.0181
1315,5.8470,-5.0044,-0.0169,-0.0665,-0.1676,-0.0044,-0.0091,0.0203
1316,5.8500,-4.6327,-0.0168,-0.0639,-0.1599,-0.0046,-0.0092,0.0211
1317,5.8536,-4.2613,-0.0164,-0.0602,-0.1520,-0.0035,-0.0095,0.0220
1318,5.8580,-3.8891,-0.0158,-0.0558,-0.1437,-0.0018,-0.0095,0.0234
1319,5.8619,-3.5163,-0.0153,-0.0517,-0.1347,-0.0004,-0.0091,0.0255
1320,5.8663,-3.1432,-0.0144,-0.0466,-0.1249,0.0012,-0.0087,0.0270
1321,5.8704,-2.7688,-0.0137,-0.0418,-0.1148,0.0019,-0.0081,0.0289
1322,5.8739,-2.3938,-0.0115,-0.0372,-0.1035,0.0047,-0.0081,0.0318
1323,5.8780,-2.0168,-0.0078,-0.0329,-0.0912,0.0080,-0.0086,0.0355
1324,5.8841,-1.6358,-0.0053,-0.0299,-0.0772,0.0088,-0.0097,0.0408
1325,5.8903,-1.2552,-0.0024,-0.0272,-0.0610,0.0118,-0.0109,0.0446
1326,5.8942,-0.8755,-0.0020,-0.0254,-0.0440,0.0136,-0.0118,0.0471
1327,5.8957,-0.4945,-0.0007,-0.0241,-0.0259,0.0154,-0.0127,0.0505
1328,5.8951,-0.1106,0.0000,-0.0235,-0.0064,0.0163,-0.0133,0.0522
1329,5.8940,0.2725,-0.0006,-0.0237,0.0128,0.0161,-0.0133,0.0514
1330,5.8916,0.6550,-0.0016,-0.0244,0.0317,0.0150,-0.0124,0.0501
1331,5.8887,1.0365,-0.0039,-0.0256,0.0500,0.0122,-0.0113,0.0472
1332,5.8859,1.4178,-0.0064,-0.0273,0.0666,0.0101,-0.0101,0.0425
1333,5.8837,1.7984,-0.0071,-0.0299,0.0819,0.0082,-0.0089,0.0387
1334,5.8803,2.1767,-0.0102,-0.0339,0.0953,0.0050,-0.0083,0.0343
1335,5.8768,2.5525,-0.0135,-0.0383,0.1072,0.0027,-0.0085,0.0307
1336,5.8724,2.9277,-0.0179,-0.0431,0.1181,-0.0006,-0.0083,0.0274
1337,5.8680,3.3012,-0.0187,-0.0478,0.1275,-0.0014,-0.0081,0.0251
1338,5.8647,3.6749,-0.0205,-0.0520,0.1366,-0.0034,-0.0083,0.0241
1339,5.8614,4.0480,-0.0214,-0.0560,0.1452,-0.0044,-0.0091,0.0224
1340,5.8581,4.4198,-0.0233,-0.0594,0.1531,-0.0050,-0.0095,0.0215
1341,5.8553,4.7919,-0.0242,-0.0626,0.1609,-0.0059,-0.0094,0.0202
1342,5.8532,5.1631,-0.0250,-0.0650,0.1681,-0.0069,-0.0091,0.0191
1415,5.5144,-5.1839,-0.0179,-0.0646,-0.1656,-0.0049,-0.0097,0.0211
1416,5.5167,-4.8123,-0.0195,-0.0620,-0.1579,-0.0049,-0.0102,0.0218
1417,5.5207,-4.4404,-0.0162,-0.0588,-0.1495,-0.0032,-0.0103,0.0230
1418,5.5250,-4.0677,-0.0155,-0.0545,-0.1409,-0.0019,-0.0098,0.0238
1419,5.5295,-3.6955,-0.0139,-0.0505,-0.1320,-0.0009,-0.0095,0.0254
1420,5.5334,-3.3218,-0.0139,-0.0462,-0.1221,0.0002,-0.0087,0.0269
1421,5.5375,-2.9480,-0.0146,-0.0414,-0.1121,0.0009,-0.0079,0.0278
1422,5.5423,-2.5739,-0.0112,-0.0368,-0.1016,0.0035,-0.0079,0.0300
1423,5.5468,-2.1986,-0.0093,-0.0322,-0.0900,0.0055,-0.0080,0.0329
1424,5.5514,-1.8205,-0.0077,-0.0284,-0.0772,0.0073,-0.0087,0.0365
1425,5.5564,-1.4420,-0.0046,-0.0250,-0.0628,0.0096,-0.0094,0.0398
1426,5.5605,-1.0627,-0.0011,-0.0225,-0.0477,0.0122,-0.0098,0.0418
1427,5.5625,-0.6837,-0.0010,-0.0211,-0.0320,0.0126,-0.0102,0.0443
1428,5.5635,-0.3031,-0.0016,-0.0197,-0.0149,0.0137,-0.0103,0.0468
1429,5.5639,0.0782,0.0003,-0.0195,0.0026,0.0144,-0.0101,0.0471
1430,5.5634,0.4595,0.0014,-0.0202,0.0202,0.0131,-0.0101,0.0466
1431,5.5612,0.8404,-0.0012,-0.0212,0.0373,0.0118,-0.0097,0.0449
1432,5.5582,1.2207,-0.0053,-0.0231,0.0535,0.0100,-0.0091,0.0413
1433,5.5556,1.6003,-0.0078,-0.0255,0.0678,0.0075,-0.0083,0.0381
1434,5.5518,1.9777,-0.0107,-0.0292,0.0815,0.0054,-0.0078,0.0350
1435,5.5485,2.3546,-0.0125,-0.0333,0.0940,0.0027,-0.0080,0.0320
1436,5.5439,2.7300,-0.0170,-0.0377,0.1052,0.0003,-0.0085,0.0290
1437,5.5393,3.1043,-0.0191,-0.0425,0.1152,-0.0011,-0.0086,0.0264
1438,5.5361,3.4779,-0.0179,-0.0470,0.1248,-0.0025,-0.0090,0.0256
1439,5.5321,3.8514,-0.0210,-0.0509,0.1340,-0.0040,-0.0094,0.0243
1440,5.5294,4.2241,-0.0202,-0.0544,0.1427,-0.0044,-0.0097,0.0233
1441,5.5263,4.5970,-0.0216,-0.0578,0.1513,-0.0054,-0.0100,0.0226
1442,5.5235,4.9687,-0.0235,-0.0605,0.1595,-0.0066,-0.0100,0.0209
1516,5.1851,-4.9920,-0.0176,-0.0598,-0.1561,-0.0040,-0.0107,0.0227
1517,5.1882,-4.6204,-0.0171,-0.0568,-0.1477,-0.0030,-0.0110,0.0235
1518,5.1923,-4.2475,-0.0145,-0.0534,-0.1388,-0.0019,-0.0102,0.0245
1519,5.1966,-3.8745,-0.0140,-0.0494,-0.1296,-0.0015,-0.0092,0.0253
1520,5.2010,-3.5016,-0.0132,-0.0452,-0.1202,-0.0007,-0.0088,0.0264
1521,5.2049,-3.1283,-0.0123,-0.0412,-0.1104,0.0007,-0.0084,0.0276
1522,5.2097,-2.7538,-0.0111,-0.0364,-0.0999,0.0021,-0.0079,0.0287
1523,5.2145,-2.3796,-0.0097,-0.0318,-0.0891,0.0032,-0.0075,0.0308
1524,5.2190,-2.0033,-0.0082,-0.0274,-0.0771,0.0056,-0.0076,0.0336
1525,5.2232,-1.6263,-0.0067,-0.0237,-0.0642,0.0075,-0.0076,0.0355
1526,5.2278,-1.2490,-0.0022,-0.0208,-0.0510,0.0088,-0.0077,0.0375
1527,5.2303,-0.8711,-0.0009,-0.0187,-0.0367,0.0104,-0.0080,0.0399
