# Name : Kerbbereich
# Stage: 22
# Units: length:mm angle:deg time:s 
id,x,y,z,displacement_x,displacement_y,displacement_z,epsilon_x,epsilon_y
87,-9.6529,9.2631,-0.0825,0.0579,0.1878,-0.0064,-0.0007,0.0026
88,-9.6833,8.9063,-0.0773,0.0576,0.1871,-0.0081,-0.0012,0.0025
89,-9.7090,8.5478,-0.0775,0.0572,0.1864,-0.0074,-0.0005,0.0020
90,-9.5746,8.2263,-0.0769,0.0567,0.1855,-0.0093,-0.0010,0.0017
91,-9.3793,7.9255,-0.0773,0.0553,0.1837,-0.0088,-0.0004,0.0029
92,-9.1891,7.6168,-0.0704,0.0543,0.1816,-0.0083,-0.0009,0.0029
93,-9.0161,7.3022,-0.0763,0.0528,0.1792,-0.0081,0.0001,0.0043
94,-8.8493,6.9808,-0.0728,0.0515,0.1759,-0.0077,-0.0004,0.0061
95,-8.7029,6.6520,-0.0662,0.0503,0.1722,-0.0068,-0.0010,0.0078
96,-8.5669,6.3149,-0.0677,0.0489,0.1681,-0.0060,-0.0033,0.0086
97,-8.4438,5.9741,-0.0698,0.0479,0.1635,-0.0063,-0.0044,0.0098
98,-8.3244,5.6306,-0.0629,0.0472,0.1580,-0.0056,-0.0049,0.0126
99,-8.1915,5.2907,-0.0584,0.0461,0.1519,-0.0047,-0.0046,0.0135
100,-8.0572,4.9508,-0.0619,0.0458,0.1449,-0.0037,-0.0054,0.0158
101,-7.9568,4.6016,-0.0607,0.0458,0.1374,-0.0030,-0.0058,0.0178
102,-7.8765,4.2424,-0.0539,0.0459,0.1293,-0.0029,-0.0078,0.0205
103,-7.7887,3.8865,-0.0557,0.0461,0.1205,-0.0018,-0.0085,0.0223
104,-7.6905,3.5319,-0.0516,0.0466,0.1110,-0.0004,-0.0090,0.0241
105,-7.6044,3.1739,-0.0538,0.0472,0.1013,-0.0003,-0.0108,0.0250
106,-7.5312,2.8119,-0.0558,0.0475,0.0911,0.0005,-0.0113,0.0269
107,-7.4658,2.4480,-0.0527,0.0479,0.0805,0.0008,-0.0117,0.0280
108,-7.4138,2.0834,-0.0497,0.0481,0.0695,0.0019,-0.0117,0.0296
109,-7.3710,1.7164,-0.0479,0.0481,0.0583,0.0012,-0.0112,0.0301
110,-7.3303,1.3481,-0.0520,0.0483,0.0468,0.0023,-0.0109,0.0308
111,-7.2894,0.9791,-0.0576,0.0488,0.0351,0.0023,-0.0136,0.0307
112,-7.2532,0.6123,-0.0562,0.0489,0.0237,0.0045,-0.0155,0.0312
113,-7.2367,0.2425,-0.0514,0.0491,0.0119,0.0059,-0.0161,0.0324
114,-7.2382,-0.1289,-0.0527,0.0484,-0.0003,0.0034,-0.0147,0.0318
115,-7.2487,-0.4994,-0.0594,0.0485,-0.0119,0.0029,-0.0145,0.0320
116,-7.2670,-0.8698,-0.0507,0.0487,-0.0236,0.0028,-0.0142,0.0314
117,-7.2942,-1.2377,-0.0560,0.0485,-0.0353,0.0021,-0.0141,0.0317
118,-7.3297,-1.6061,-0.0624,0.0479,-0.0467,0.0030,-0.0124,0.0298
119,-7.3730,-1.9740,-0.0582,0.0476,-0.0576,0.0016,-0.0136,0.0283
120,-7.4215,-2.3408,-0.0606,0.0466,-0.0682,0.0017,-0.0122,0.0277
121,-7.4773,-2.7056,-0.0629,0.0460,-0.0787,0.0010,-0.0097,0.0269
122,-7.5473,-3.0672,-0.0586,0.0457,-0.0889,0.0018,-0.0099,0.0254
123,-7.6242,-3.4278,-0.0666,0.0452,-0.0985,0.0005,-0.0098,0.0226
124,-7.7008,-3.7864,-0.0682,0.0450,-0.1072,0.0005,-0.0080,0.0213
125,-7.7853,-4.1448,-0.0711,0.0445,-0.1159,0.0006,-0.0061,0.0204
126,-7.8787,-4.4994,-0.0766,0.0445,-0.1241,0.0000,-0.0054,0.0173
127,-7.9750,-4.8521,-0.0799,0.0446,-0.1309,-0.0010,-0.0055,0.0157
128,-8.0869,-5.1997,-0.0800,0.0445,-0.1374,-0.0012,-0.0047,0.0138
129,-8.2219,-5.5391,-0.0832,0.0448,-0.1437,-0.0026,-0.0038,0.0118
130,-8.3581,-5.8774,-0.0858,0.0454,-0.1489,-0.0026,-0.0032,0.0104
131,-8.5002,-6.2128,-0.0899,0.0461,-0.1538,-0.0032,-0.0024,0.0080
132,-8.6464,-6.5440,-0.0931,0.0468,-0.1575,-0.0037,-0.0018,0.0073
133,-8.7965,-6.8728,-0.0974,0.0475,-0.1611,-0.0041,-0.0012,0.0055
134,-8.9524,-7.1997,-0.0974,0.0488,-0.1639,-0.0042,-0.0017,0.0053
135,-9.1131,-7.5242,-0.0979,0.0497,-0.1667,-0.0054,-0.0013,0.0036
136,-9.2750,-7.8459,-0.1010,0.0508,-0.1681,-0.0055,-0.0010,0.0030
137,-9.4404,-8.1658,-0.0996,0.0518,-0.1696,-0.0049,-0.0024,0.0033
138,-9.6125,-8.4799,-0.0937,0.0520,-0.1709,-0.0058,-0.0011,0.0004
139,-9.6949,-8.8209,-0.0992,0.0524,-0.1710,-0.0052,-0.0027,0.0019
140,-9.6947,-9.1820,-0.1026,0.0521,-0.1726,-0.0051,-0.0010,0.0034
141,-9.6950,-9.5394,-0.1079,0.0517,-0.1727,-0.0055,-0.0010,0.0020
142,-9.6940,-9.8954,-0.1065,0.0511,-0.1740,-0.0042,-0.0014,0.0034
254,9.6725,-9.6262,0.0608,-0.0566,-0.1828,-0.0066,-0.0012,0.0033
255,9.6635,-9.2593,0.0626,-0.0563,-0.1816,-0.0052,-0.0001,0.0027
256,9.6540,-8.8946,0.0623,-0.0565,-0.1811,-0.0057,-0.0008,0.0019
257,9.5945,-8.5333,0.0599,-0.0558,-0.1803,-0.0062,0.0003,0.0021
258,9.4277,-8.2037,0.0618,-0.0553,-0.1789,-0.0069,-0.0012,0.0023
259,9.2456,-7.8799,0.0630,-0.0543,-0.1769,-0.0070,-0.0007,0.0031
260,9.0808,-7.5458,0.0615,-0.0531,-0.1746,-0.0056,-0.0015,0.0037
261,8.9254,-7.2084,0.0590,-0.0519,-0.1720,-0.0063,-0.0018,0.0047
262,8.7635,-6.8738,0.0598,-0.0504,-0.1689,-0.0059,-0.0020,0.0062
263,8.6062,-6.5359,0.0596,-0.0493,-0.1645,-0.0050,-0.0028,0.0081
264,8.4576,-6.1935,0.0558,-0.0479,-0.1602,-0.0039,-0.0019,0.0085
265,8.3230,-5.8460,0.0559,-0.0471,-0.1551,-0.0041,-0.0033,0.0109
266,8.1911,-5.4959,0.0573,-0.0471,-0.1489,-0.0039,-0.0059,0.0134
267,8.0643,-5.1444,0.0585,-0.0463,-0.1422,-0.0018,-0.0058,0.0154
268,7.9465,-4.7892,0.0590,-0.0463,-0.1348,-0.0018,-0.0061,0.0173
269,7.8376,-4.4317,0.0589,-0.0461,-0.1268,-0.0005,-0.0067,0.0194
270,7.7371,-4.0710,0.0592,-0.0463,-0.1183,-0.0005,-0.0081,0.0205
271,7.6401,-3.7084,0.0588,-0.0467,-0.1093,-0.0010,-0.0095,0.0223
272,7.5584,-3.3426,0.0639,-0.0466,-0.0996,0.0007,-0.0094,0.0245
273,7.4844,-2.9743,0.0632,-0.0470,-0.0896,0.0012,-0.0105,0.0256
274,7.4192,-2.6045,0.0584,-0.0474,-0.0791,0.0012,-0.0111,0.0269
275,7.3669,-2.2315,0.0648,-0.0479,-0.0685,0.0011,-0.0124,0.0287
276,7.3157,-1.8587,0.0626,-0.0481,-0.0571,0.0012,-0.0125,0.0289
277,7.2801,-1.4848,0.0608,-0.0487,-0.0463,0.0025,-0.0131,0.0293
278,7.2650,-1.1084,0.0627,-0.0492,-0.0348,0.0019,-0.0135,0.0304
279,7.2527,-0.7321,0.0618,-0.0494,-0.0233,0.0028,-0.0131,0.0306
280,7.2426,-0.3550,0.0655,-0.0496,-0.0117,0.0019,-0.0127,0.0309
281,7.2326,0.0208,0.0630,-0.0498,-0.0001,0.0014,-0.0132,0.0311
282,7.2364,0.3973,0.0634,-0.0497,0.0115,0.0011,-0.0134,0.0308
283,7.2549,0.7737,0.0644,-0.0493,0.0231,0.0011,-0.0128,0.0302
284,7.2737,1.1507,0.0649,-0.0492,0.0344,-0.0001,-0.0127,0.0301
285,7.2933,1.5259,0.0631,-0.0487,0.0457,0.0007,-0.0119,0.0293
286,7.3299,1.9015,0.0629,-0.0484,0.0570,0.0004,-0.0119,0.0285
287,7.3861,2.2729,0.0631,-0.0476,0.0675,0.0006,-0.0106,0.0266
288,7.4435,2.6459,0.0665,-0.0472,0.0777,-0.0006,-0.0108,0.0261
289,7.5084,3.0161,0.0652,-0.0467,0.0879,-0.0012,-0.0097,0.0251
290,7.5885,3.3845,0.0646,-0.0462,0.0977,-0.0014,-0.0086,0.0230
291,7.6780,3.7501,0.0691,-0.0458,0.1069,-0.0024,-0.0081,0.0217
292,7.7710,4.1151,0.0729,-0.0450,0.1154,-0.0029,-0.0069,0.0204
293,7.8733,4.4768,0.0707,-0.0449,0.1236,-0.0037,-0.0064,0.0174
294,7.9879,4.8338,0.0725,-0.0452,0.1310,-0.0044,-0.0057,0.0155
295,8.1022,5.1915,0.0730,-0.0455,0.1374,-0.0053,-0.0050,0.0134
296,8.2175,5.5480,0.0729,-0.0457,0.1431,-0.0066,-0.0042,0.0128
297,8.3453,5.8997,0.0723,-0.0462,0.1488,-0.0076,-0.0030,0.0107
298,8.4988,6.2426,0.0726,-0.0467,0.1537,-0.0077,-0.0018,0.0086
299,8.6534,6.5839,0.0764,-0.0477,0.1576,-0.0082,-0.0021,0.0074
300,8.8084,6.9245,0.0767,-0.0486,0.1613,-0.0093,-0.0020,0.0053
301,8.9708,7.2624,0.0774,-0.0498,0.1638,-0.0093,-0.0020,0.0043
302,9.1446,7.5940,0.0770,-0.0505,0.1662,-0.0092,-0.0012,0.0034
303,9.3195,7.9257,0.0779,-0.0512,0.1680,-0.0096,-0.0011,0.0033
304,9.4978,8.2563,0.0848,-0.0518,0.1695,-0.0088,-0.0016,0.0024
305,9.6346,8.5981,0.0924,-0.0520,0.1707,-0.0086,-0.0008,0.0018
306,9.6738,8.9649,0.0913,-0.0525,0.1710,-0.0095,-0.0019,0.0023
307,9.6856,9.3314,0.0876,-0.0518,0.1721,-0.0079,-0.0009,0.0031
308,9.6946,9.7004,0.0944,-0.0513,0.1731,-0.0077,-0.0012,0.0031
343,9.4000,8.8137,0.0848,-0.0522,0.1705,-0.0089,-0.0012,0.0026
344,9.3945,9.1546,0.0848,-0.0518,0.1716,-0.0080,-0.0013,0.0034
345,9.4011,9.5122,0.0882,-0.0513,0.1729,-0.0074,-0.0016,0.0034
346,9.4034,9.8763,0.0868,-0.0506,0.1740,-0.0070,-0.0015,0.0037
412,9.3440,-9.3854,0.0609,-0.0562,-0.1818,-0.0057,-0.0011,0.0033
413,9.3349,-9.0220,0.0609,-0.0562,-0.1806,-0.0056,-0.0012,0.0029
414,9.3059,-8.6660,0.0634,-0.0563,-0.1796,-0.0067,-0.0011,0.0029
415,9.2282,-8.3111,0.0630,-0.0552,-0.1781,-0.0061,-0.0007,0.0032
416,9.0314,7.8851,0.0801,-0.0511,0.1665,-0.0094,-0.0014,0.0039
417,9.1251,8.2165,0.0837,-0.0511,0.1683,-0.0078,-0.0013,0.0032
418,9.2066,8.5574,0.0829,-0.0516,0.1694,-0.0077,-0.0012,0.0030
419,9.1030,8.9425,0.0813,-0.0518,0.1706,-0.0077,-0.0013,0.0038
420,9.0988,9.3148,0.0823,-0.0512,0.1720,-0.0072,-0.0017,0.0042
421,9.1015,9.6822,0.0843,-0.0501,0.1736,-0.0058,-0.0022,0.0040
487,9.0178,-9.5326,0.0571,-0.0557,-0.1818,-0.0055,-0.0016,0.0042
488,9.0107,-9.1695,0.0582,-0.0556,-0.1806,-0.0052,-0.0017,0.0038
489,8.9951,-8.8116,0.0597,-0.0557,-0.1790,-0.0061,-0.0020,0.0041
490,8.9610,-8.4602,0.0618,-0.0552,-0.1775,-0.0059,-0.0018,0.0042
491,8.9522,-8.0901,0.0596,-0.0548,-0.1757,-0.0068,-0.0014,0.0041
492,8.8962,-7.7644,0.0607,-0.0536,-0.1741,-0.0059,-0.0015,0.0041
493,8.6952,7.3033,0.0782,-0.0493,0.1623,-0.0082,-0.0025,0.0048
494,8.7821,7.6487,0.0779,-0.0501,0.1643,-0.0083,-0.0021,0.0045
495,8.7742,8.0391,0.0773,-0.0506,0.1661,-0.0076,-0.0017,0.0043
496,8.8245,8.3977,0.0788,-0.0510,0.1677,-0.0076,-0.0014,0.0039
497,8.8267,8.7410,0.0788,-0.0512,0.1692,-0.0074,-0.0017,0.0047
498,8.7949,9.1160,0.0806,-0.0512,0.1709,-0.0076,-0.0021,0.0047
499,8.7914,9.4871,0.0831,-0.0500,0.1727,-0.0059,-0.0020,0.0048
500,8.7905,9.8551,0.0833,-0.0493,0.1744,-0.0057,-0.0022,0.0045
565,8.6895,-9.7010,0.0570,-0.0551,-0.1821,-0.0055,-0.0021,0.0052
566,8.6833,-9.3361,0.0574,-0.0552,-0.1803,-0.0049,-0.0021,0.0048
567,8.6734,-8.9742,0.0567,-0.0550,-0.1786,-0.0051,-0.0018,0.0050
568,8.6560,-8.6143,0.0568,-0.0549,-0.1766,-0.0057,-0.0020,0.0049
569,8.6430,-8.2493,0.0569,-0.0543,-0.1748,-0.0057,-0.0026,0.0051
570,8.6173,-7.8885,0.0592,-0.0534,-0.1728,-0.0060,-0.0026,0.0051
571,8.6622,-7.5014,0.0596,-0.0522,-0.1713,-0.0053,-0.0021,0.0050
572,8.5985,-7.1537,0.0585,-0.0512,-0.1687,-0.0056,-0.0024,0.0056
573,8.4454,6.7973,0.0747,-0.0478,0.1574,-0.0081,-0.0022,0.0068
574,8.4556,7.1066,0.0751,-0.0481,0.1594,-0.0070,-0.0023,0.0061
575,8.4420,7.4795,0.0741,-0.0489,0.1615,-0.0073,-0.0024,0.0057
576,8.4719,7.8350,0.0737,-0.0497,0.1638,-0.0075,-0.0021,0.0054
577,8.4777,8.2053,0.0743,-0.0503,0.1656,-0.0073,-0.0020,0.0049
578,8.4886,8.5628,0.0759,-0.0505,0.1674,-0.0073,-0.0024,0.0055
579,8.4850,8.9222,0.0767,-0.0505,0.1695,-0.0067,-0.0029,0.0055
580,8.4738,9.2922,0.0783,-0.0499,0.1714,-0.0064,-0.0027,0.0053
581,8.4702,9.6607,0.0787,-0.0490,0.1733,-0.0058,-0.0023,0.0052
647,8.3544,-9.5142,0.0562,-0.0542,-0.1807,-0.0052,-0.0032,0.0059
648,8.3466,-9.1485,0.0536,-0.0544,-0.1783,-0.0053,-0.0028,0.0061
649,8.3371,-8.7846,0.0544,-0.0545,-0.1761,-0.0060,-0.0022,0.0058
650,8.3270,-8.4194,0.0535,-0.0537,-0.1741,-0.0052,-0.0027,0.0056
651,8.3145,-8.0536,0.0555,-0.0529,-0.1718,-0.0050,-0.0027,0.0063
652,8.3224,-7.6768,0.0565,-0.0521,-0.1695,-0.0052,-0.0023,0.0060
653,8.3106,-7.3104,0.0554,-0.0508,-0.1672,-0.0046,-0.0022,0.0063
654,8.3558,-6.9021,0.0588,-0.0496,-0.1649,-0.0049,-0.0026,0.0076
655,8.2741,-6.5402,0.0603,-0.0483,-0.1609,-0.0048,-0.0028,0.0086
656,8.1934,-6.1970,0.0577,-0.0474,-0.1569,-0.0032,-0.0030,0.0095
657,8.0626,5.8189,0.0730,-0.0450,0.1450,-0.0064,-0.0039,0.0115
658,8.1353,6.1700,0.0716,-0.0460,0.1494,-0.0076,-0.0030,0.0098
659,8.2189,6.5300,0.0762,-0.0466,0.1535,-0.0070,-0.0025,0.0083
660,8.1369,6.9052,0.0731,-0.0472,0.1555,-0.0069,-0.0025,0.0074
661,8.1423,7.2697,0.0736,-0.0478,0.1582,-0.0064,-0.0020,0.0066
662,8.1421,7.6409,0.0724,-0.0486,0.1604,-0.0067,-0.0020,0.0061
663,8.1534,8.0050,0.0739,-0.0494,0.1628,-0.0069,-0.0026,0.0062
664,8.1541,8.3707,0.0747,-0.0496,0.1651,-0.0060,-0.0029,0.0063
665,8.1550,8.7340,0.0759,-0.0495,0.1674,-0.0056,-0.0029,0.0064
666,8.1512,9.0988,0.0755,-0.0492,0.1696,-0.0062,-0.0027,0.0061
667,8.1454,9.4677,0.0766,-0.0486,0.1719,-0.0052,-0.0025,0.0061
668,8.1414,9.8355,0.0754,-0.0478,0.1741,-0.0047,-0.0026,0.0059
733,8.0223,-9.6956,0.0514,-0.0532,-0.1809,-0.0037,-0.0034,0.0063
734,8.0184,-9.3292,0.0540,-0.0529,-0.1784,-0.0039,-0.0031,0.0070
735,8.0115,-8.9631,0.0539,-0.0537,-0.1758,-0.0053,-0.0032,0.0071
736,8.0038,-8.5971,0.0519,-0.0532,-0.1731,-0.0047,-0.0031,0.0065
737,7.9961,-8.2306,0.0512,-0.0524,-0.1709,-0.0049,-0.0029,0.0069
738,7.9951,-7.8594,0.0537,-0.0519,-0.1680,-0.0051,-0.0027,0.0073
739,7.9913,-7.4913,0.0551,-0.0508,-0.1655,-0.0041,-0.0025,0.0068
740,8.0042,-7.1171,0.0550,-0.0497,-0.1630,-0.0044,-0.0026,0.0076
741,7.9848,-6.7616,0.0570,-0.0480,-0.1598,-0.0036,-0.0030,0.0090
742,7.9323,-6.3993,0.0572,-0.0471,-0.1558,-0.0039,-0.0034,0.0098
743,7.9439,-6.0196,0.0558,-0.0460,-0.1520,-0.0026,-0.0038,0.0109
744,7.9351,-5.6954,0.0556,-0.0455,-0.1482,-0.0029,-0.0045,0.0128
745,7.8724,-5.3602,0.0582,-0.0452,-0.1427,-0.0017,-0.0056,0.0142
746,7.7701,4.9144,0.0687,-0.0439,0.1296,-0.0045,-0.0057,0.0155
747,7.8275,5.2854,0.0722,-0.0440,0.1356,-0.0045,-0.0047,0.0135
748,7.8201,5.6106,0.0718,-0.0440,0.1397,-0.0053,-0.0041,0.0124
749,7.7992,5.9871,0.0680,-0.0442,0.1438,-0.0059,-0.0039,0.0112
750,7.8421,6.3488,0.0692,-0.0452,0.1480,-0.0067,-0.0035,0.0100
751,7.8480,6.6967,0.0710,-0.0458,0.1513,-0.0065,-0.0031,0.0088
752,7.8229,7.0698,0.0693,-0.0467,0.1544,-0.0058,-0.0028,0.0080
753,7.8228,7.4392,0.0686,-0.0477,0.1570,-0.0070,-0.0024,0.0070
754,7.8227,7.8072,0.0682,-0.0482,0.1594,-0.0077,-0.0025,0.0069
755,7.8254,8.1738,0.0727,-0.0483,0.1621,-0.0060,-0.0029,0.0074
756,7.8231,8.5404,0.0732,-0.0486,0.1648,-0.0053,-0.0032,0.0074
757,7.8212,8.9071,0.0750,-0.0485,0.1676,-0.0052,-0.0031,0.0070
758,7.8168,9.2743,0.0730,-0.0483,0.1700,-0.0060,-0.0033,0.0068
759,7.8126,9.6425,0.0729,-0.0474,0.1724,-0.0050,-0.0034,0.0068
825,7.6868,-9.5124,0.0498,-0.0521,-0.1786,-0.0039,-0.0034,0.0074
826,7.6816,-9.1452,0.0501,-0.0523,-0.1758,-0.0039,-0.0033,0.0079
827,7.6763,-8.7783,0.0501,-0.0524,-0.1729,-0.0049,-0.0038,0.0076
828,7.6713,-8.4114,0.0515,-0.0518,-0.1702,-0.0046,-0.0035,0.0074
829,7.6664,-8.0430,0.0484,-0.0510,-0.1673,-0.0041,-0.0034,0.0084
830,7.6641,-7.6752,0.0521,-0.0504,-0.1641,-0.0046,-0.0036,0.0080
831,7.6657,-7.3061,0.0531,-0.0492,-0.1612,-0.0039,-0.0037,0.0080
832,7.6574,-6.9444,0.0510,-0.0478,-0.1582,-0.0038,-0.0034,0.0090
833,7.6379,-6.5827,0.0540,-0.0464,-0.1545,-0.0031,-0.0035,0.0102
834,7.6282,-6.2079,0.0539,-0.0454,-0.1504,-0.0029,-0.0038,0.0110
835,7.6156,-5.8460,0.0542,-0.0443,-0.1461,-0.0022,-0.0039,0.0126
836,7.5990,-5.4842,0.0575,-0.0438,-0.1410,-0.0015,-0.0047,0.0142
837,7.6653,-5.0857,0.0585,-0.0439,-0.1360,-0.0003,-0.0056,0.0157
838,7.5990,-4.7090,0.0604,-0.0444,-0.1289,-0.0001,-0.0065,0.0181
839,7.5284,-4.3408,0.0591,-0.0439,-0.1208,-0.0002,-0.0076,0.0201
840,7.4721,-3.9839,0.0615,-0.0443,-0.1128,0.0001,-0.0085,0.0208
841,7.4656,3.9701,0.0698,-0.0432,0.1091,-0.0022,-0.0077,0.0210
842,7.5036,4.3179,0.0714,-0.0426,0.1166,-0.0021,-0.0067,0.0189
843,7.5241,4.6652,0.0706,-0.0424,0.1227,-0.0037,-0.0061,0.0166
844,7.4942,5.0524,0.0685,-0.0424,0.1284,-0.0042,-0.0054,0.0149
845,7.4993,5.4111,0.0699,-0.0425,0.1333,-0.0048,-0.0050,0.0132
846,7.5003,5.7743,0.0688,-0.0429,0.1380,-0.0057,-0.0044,0.0125
847,7.5006,6.1478,0.0662,-0.0434,0.1427,-0.0056,-0.0039,0.0117
848,7.5098,6.5091,0.0671,-0.0443,0.1467,-0.0059,-0.0037,0.0100
849,7.5082,6.8713,0.0680,-0.0451,0.1500,-0.0060,-0.0036,0.0090
850,7.4986,7.2414,0.0664,-0.0460,0.1531,-0.0064,-0.0036,0.0086
851,7.4962,7.6104,0.0671,-0.0471,0.1563,-0.0069,-0.0034,0.0081
852,7.4942,7.9778,0.0690,-0.0476,0.1590,-0.0063,-0.0033,0.0080
853,7.4925,8.3459,0.0710,-0.0475,0.1621,-0.0049,-0.0037,0.0081
854,7.4892,8.7131,0.0706,-0.0474,0.1650,-0.0048,-0.0039,0.0077
855,7.4858,9.0805,0.0707,-0.0471,0.1677,-0.0047,-0.0040,0.0075
856,7.4822,9.4480,0.0712,-0.0464,0.1704,-0.0040,-0.0042,0.0076
857,7.4790,9.8164,0.0719,-0.0457,0.1732,-0.0046,-0.0039,0.0075
922,7.3558,-9.6957,0.0471,-0.0505,-0.1788,-0.0033,-0.0040,0.0078
923,7.3509,-9.3286,0.0473,-0.0510,-0.1760,-0.0034,-0.0043,0.0085
924,7.3462,-8.9610,0.0477,-0.0512,-0.1726,-0.0040,-0.0045,0.0086
925,7.3414,-8.5940,0.0469,-0.0507,-0.1696,-0.0037,-0.0044,0.0084
926,7.3374,-8.2262,0.0472,-0.0503,-0.1666,-0.0040,-0.0043,0.0085
927,7.3339,-7.8584,0.0480,-0.0495,-0.1632,-0.0034,-0.0043,0.0088
928,7.3325,-7.4905,0.0496,-0.0485,-0.1601,-0.0039,-0.0043,0.0089
929,7.3266,-7.1239,0.0464,-0.0472,-0.1566,-0.0034,-0.0041,0.0093
930,7.3186,-6.7596,0.0497,-0.0459,-0.1531,-0.0030,-0.0033,0.0102
931,7.3121,-6.3906,0.0519,-0.0446,-0.1488,-0.0033,-0.0034,0.0115
932,7.3021,-6.0221,0.0523,-0.0436,-0.1444,-0.0031,-0.0040,0.0124
933,7.2929,-5.6535,0.0543,-0.0427,-0.1394,-0.0018,-0.0043,0.0139
934,7.3116,-5.2738,0.0581,-0.0421,-0.1341,-0.0007,-0.0050,0.0149
935,7.3040,-4.9154,0.0577,-0.0421,-0.1286,0.0003,-0.0060,0.0165
936,7.2625,-4.5484,0.0590,-0.0419,-0.1217,0.0001,-0.0070,0.0190
937,7.2221,-4.1767,0.0587,-0.0418,-0.1137,0.0005,-0.0073,0.0205
938,7.2424,-3.7962,0.0606,-0.0428,-0.1062,0.0003,-0.0085,0.0215
939,7.2663,-3.4711,0.0601,-0.0436,-0.0992,0.0011,-0.0087,0.0235
940,7.2185,-3.1177,0.0601,-0.0438,-0.0901,0.0020,-0.0092,0.0249
941,7.1727,-2.7575,0.0607,-0.0443,-0.0806,0.0018,-0.0103,0.0258
942,7.1472,-2.4035,0.0595,-0.0448,-0.0713,0.0014,-0.0112,0.0269
943,7.0861,1.7985,0.0686,-0.0457,0.0523,0.0007,-0.0118,0.0289
944,7.1049,2.1666,0.0656,-0.0450,0.0627,0.0005,-0.0112,0.0270
945,7.1404,2.5405,0.0669,-0.0440,0.0726,0.0001,-0.0103,0.0260
946,7.1809,2.9184,0.0671,-0.0436,0.0824,-0.0007,-0.0100,0.0249
947,7.2305,3.2978,0.0684,-0.0431,0.0920,-0.0011,-0.0094,0.0230
948,7.2743,3.6843,0.0701,-0.0427,0.1008,-0.0010,-0.0086,0.0217
949,7.1787,4.0893,0.0687,-0.0406,0.1082,-0.0020,-0.0074,0.0202
950,7.1866,4.4650,0.0668,-0.0405,0.1153,-0.0031,-0.0062,0.0178
951,7.1920,4.8321,0.0685,-0.0405,0.1216,-0.0033,-0.0058,0.0163
952,7.1786,5.2056,0.0663,-0.0406,0.1274,-0.0039,-0.0055,0.0144
953,7.1795,5.5742,0.0682,-0.0410,0.1322,-0.0040,-0.0049,0.0131
954,7.1801,5.9433,0.0681,-0.0416,0.1368,-0.0043,-0.0044,0.0124
955,7.1783,6.3120,0.0675,-0.0425,0.1413,-0.0047,-0.0039,0.0112
956,7.1774,6.6782,0.0663,-0.0434,0.1450,-0.0045,-0.0036,0.0100
957,7.1741,7.0442,0.0670,-0.0442,0.1486,-0.0045,-0.0035,0.0098
958,7.1687,7.4139,0.0673,-0.0452,0.1522,-0.0053,-0.0039,0.0097
959,7.1644,7.7822,0.0658,-0.0461,0.1557,-0.0057,-0.0044,0.0089
960,7.1608,8.1508,0.0659,-0.0461,0.1588,-0.0050,-0.0043,0.0087
961,7.1579,8.5186,0.0676,-0.0459,0.1619,-0.0042,-0.0040,0.0084
962,7.1548,8.8859,0.0696,-0.0460,0.1649,-0.0046,-0.0040,0.0083
963,7.1511,9.2545,0.0699,-0.0455,0.1680,-0.0041,-0.0039,0.0085
964,7.1468,9.6227,0.0679,-0.0447,0.1712,-0.0036,-0.0038,0.0085
1030,7.0195,-9.5119,0.0433,-0.0495,-0.1761,-0.0031,-0.0048,0.0089
1031,7.0154,-9.1444,0.0439,-0.0493,-0.1727,-0.0029,-0.0055,0.0095
1032,7.0107,-8.7773,0.0439,-0.0495,-0.1692,-0.0031,-0.0049,0.0097
1033,7.0075,-8.4094,0.0459,-0.0489,-0.1654,-0.0028,-0.0046,0.0093
1034,7.0037,-8.0419,0.0455,-0.0482,-0.1624,-0.0029,-0.0046,0.0089
1035,7.0013,-7.6742,0.0481,-0.0475,-0.1591,-0.0033,-0.0045,0.0095
1036,6.9969,-7.3064,0.0454,-0.0463,-0.1552,-0.0037,-0.0044,0.0102
1037,6.9919,-6.9404,0.0469,-0.0453,-0.1515,-0.0034,-0.0042,0.0099
1038,6.9873,-6.5727,0.0492,-0.0445,-0.1478,-0.0038,-0.0043,0.0116
1039,6.9813,-6.2039,0.0495,-0.0428,-0.1432,-0.0026,-0.0047,0.0125
1040,6.9747,-5.8341,0.0497,-0.0417,-0.1383,-0.0019,-0.0050,0.0135
1041,6.9771,-5.4613,0.0524,-0.0409,-0.1332,-0.0010,-0.0051,0.0146
1042,6.9751,-5.0951,0.0557,-0.0403,-0.1275,-0.0002,-0.0056,0.0159
1043,6.9612,-4.7319,0.0568,-0.0398,-0.1213,0.0008,-0.0065,0.0179
1044,6.9381,-4.3608,0.0563,-0.0398,-0.1140,0.0002,-0.0068,0.0197
1045,6.9319,-3.9818,0.0579,-0.0400,-0.1064,0.0005,-0.0075,0.0208
1046,6.9306,-3.6145,0.0580,-0.0406,-0.0985,0.0007,-0.0083,0.0222
1047,6.9236,-3.2610,0.0578,-0.0412,-0.0906,0.0011,-0.0088,0.0234
1048,6.8962,-2.8948,0.0583,-0.0412,-0.0815,0.0020,-0.0094,0.0248
1049,6.8791,-2.5140,0.0595,-0.0419,-0.0718,0.0019,-0.0098,0.0262
1050,6.9802,-2.1085,0.0592,-0.0433,-0.0619,0.0019,-0.0109,0.0277
1051,6.9622,-1.7210,0.0622,-0.0440,-0.0510,0.0022,-0.0117,0.0282
1052,6.9431,-1.3384,0.0629,-0.0446,-0.0402,0.0025,-0.0124,0.0291
1053,6.9310,-0.9600,0.0615,-0.0448,-0.0291,0.0025,-0.0125,0.0295
