# Name : Kerbbereich
# Stage: 33
# Units: length:mm angle:deg time:s 
id,x,y,z,displacement_x,displacement_y,displacement_z,epsilon_x,epsilon_y
87,-9.6015,9.4512,-0.0904,0.1084,0.3761,-0.0153,-0.0036,0.0039
88,-9.6319,9.0942,-0.0859,0.1082,0.3752,-0.0177,-0.0015,0.0034
89,-9.6579,8.7356,-0.0872,0.1075,0.3743,-0.0181,-0.0003,0.0030
90,-9.5237,8.4135,-0.0860,0.1068,0.3729,-0.0193,-0.0023,0.0028
91,-9.3290,8.1118,-0.0857,0.1048,0.3702,-0.0181,-0.0008,0.0046
92,-9.1395,7.8017,-0.0784,0.1030,0.3667,-0.0173,-0.0009,0.0054
93,-8.9672,7.4856,-0.0838,0.1009,0.3628,-0.0165,-0.0013,0.0067
94,-8.8016,7.1620,-0.0799,0.0984,0.3573,-0.0158,-0.0021,0.0110
95,-8.6561,6.8306,-0.0719,0.0963,0.3510,-0.0134,-0.0032,0.0127
96,-8.5205,6.4903,-0.0726,0.0946,0.3436,-0.0119,-0.0057,0.0154
97,-8.3979,6.1453,-0.0735,0.0930,0.3349,-0.0109,-0.0072,0.0190
98,-8.2788,5.7973,-0.0664,0.0920,0.3249,-0.0099,-0.0078,0.0229
99,-8.1459,5.4522,-0.0608,0.0909,0.3136,-0.0078,-0.0083,0.0263
100,-8.0119,5.1054,-0.0627,0.0904,0.2997,-0.0053,-0.0097,0.0313
101,-7.9106,4.7494,-0.0605,0.0913,0.2854,-0.0036,-0.0116,0.0358
102,-7.8288,4.3820,-0.0530,0.0930,0.2691,-0.0027,-0.0145,0.0407
103,-7.7399,4.0175,-0.0534,0.0943,0.2517,-0.0003,-0.0161,0.0444
104,-7.6406,3.6534,-0.0496,0.0960,0.2327,0.0010,-0.0182,0.0486
105,-7.5530,3.2848,-0.0501,0.0981,0.2125,0.0029,-0.0210,0.0524
106,-7.4785,2.9122,-0.0504,0.0997,0.1917,0.0054,-0.0222,0.0551
107,-7.4121,2.5371,-0.0473,0.1011,0.1699,0.0057,-0.0237,0.0575
108,-7.3589,2.1605,-0.0448,0.1026,0.1469,0.0064,-0.0255,0.0612
109,-7.3146,1.7808,-0.0426,0.1042,0.1229,0.0062,-0.0273,0.0631
110,-7.2734,1.3996,-0.0455,0.1050,0.0986,0.0086,-0.0263,0.0649
111,-7.2320,1.0177,-0.0504,0.1061,0.0739,0.0093,-0.0288,0.0649
112,-7.1947,0.6380,-0.0497,0.1073,0.0497,0.0109,-0.0331,0.0651
113,-7.1782,0.2552,-0.0452,0.1075,0.0249,0.0121,-0.0330,0.0673
114,-7.1801,-0.1297,-0.0463,0.1066,-0.0007,0.0098,-0.0314,0.0663
115,-7.1912,-0.5130,-0.0525,0.1061,-0.0252,0.0099,-0.0299,0.0661
116,-7.2101,-0.8964,-0.0440,0.1058,-0.0499,0.0096,-0.0286,0.0658
117,-7.2380,-1.2776,-0.0497,0.1049,-0.0749,0.0086,-0.0285,0.0653
118,-7.2743,-1.6584,-0.0557,0.1035,-0.0988,0.0099,-0.0271,0.0619
119,-7.3192,-2.0386,-0.0528,0.1017,-0.1219,0.0072,-0.0271,0.0599
120,-7.3689,-2.4175,-0.0549,0.0995,-0.1446,0.0078,-0.0252,0.0583
121,-7.4268,-2.7937,-0.0579,0.0970,-0.1665,0.0064,-0.0215,0.0554
122,-7.4979,-3.1667,-0.0548,0.0955,-0.1881,0.0060,-0.0216,0.0523
123,-7.5765,-3.5374,-0.0627,0.0934,-0.2079,0.0051,-0.0185,0.0475
124,-7.6550,-3.9060,-0.0663,0.0913,-0.2265,0.0030,-0.0163,0.0437
125,-7.7406,-4.2729,-0.0698,0.0897,-0.2437,0.0026,-0.0155,0.0406
126,-7.8354,-4.6354,-0.0762,0.0884,-0.2599,0.0011,-0.0134,0.0362
127,-7.9329,-4.9955,-0.0804,0.0873,-0.2742,-0.0008,-0.0118,0.0309
128,-8.0453,-5.3494,-0.0820,0.0868,-0.2870,-0.0024,-0.0099,0.0269
129,-8.1805,-5.6946,-0.0853,0.0869,-0.2990,-0.0040,-0.0060,0.0235
130,-8.3166,-6.0380,-0.0889,0.0876,-0.3092,-0.0049,-0.0062,0.0198
131,-8.4582,-6.3773,-0.0935,0.0887,-0.3182,-0.0060,-0.0047,0.0152
132,-8.6042,-6.7119,-0.0984,0.0898,-0.3253,-0.0082,-0.0033,0.0130
133,-8.7539,-7.0437,-0.1037,0.0909,-0.3318,-0.0095,-0.0014,0.0103
134,-8.9090,-7.3729,-0.1047,0.0930,-0.3369,-0.0106,-0.0029,0.0081
135,-9.0692,-7.6990,-0.1055,0.0944,-0.3413,-0.0121,-0.0012,0.0052
136,-9.2304,-8.0218,-0.1090,0.0962,-0.3438,-0.0126,-0.0021,0.0050
137,-9.3954,-8.3427,-0.1080,0.0976,-0.3463,-0.0124,-0.0017,0.0048
138,-9.5671,-8.6571,-0.1025,0.0982,-0.3479,-0.0137,-0.0013,0.0017
139,-9.6501,-8.9985,-0.1083,0.0981,-0.3483,-0.0135,-0.0001,0.0031
140,-9.6503,-9.3599,-0.1128,0.0973,-0.3504,-0.0144,0.0014,0.0049
141,-9.6505,-9.7181,-0.1155,0.0969,-0.3512,-0.0121,-0.0032,0.0037
142,-9.6500,-10.0744,-0.1128,0.0960,-0.3529,-0.0096,-0.0041,0.0055
254,9.6215,-9.8114,0.0526,-0.1068,-0.3683,-0.0139,-0.0013,0.0048
255,9.6118,-9.4442,0.0529,-0.1072,-0.3668,-0.0140,-0.0016,0.0039
256,9.6022,-9.0789,0.0524,-0.1076,-0.3656,-0.0147,-0.0020,0.0036
257,9.5429,-8.7173,0.0510,-0.1065,-0.3646,-0.0143,-0.0001,0.0029
258,9.3764,-8.3869,0.0527,-0.1057,-0.3624,-0.0151,-0.0018,0.0038
259,9.1950,-8.0625,0.0540,-0.1040,-0.3598,-0.0151,-0.0019,0.0049
260,9.0310,-7.7269,0.0524,-0.1021,-0.3560,-0.0139,-0.0028,0.0066
261,8.8768,-7.3877,0.0513,-0.0997,-0.3515,-0.0132,-0.0027,0.0082
262,8.7157,-7.0505,0.0529,-0.0974,-0.3459,-0.0119,-0.0037,0.0109
263,8.5593,-6.7095,0.0534,-0.0954,-0.3384,-0.0103,-0.0042,0.0140
264,8.4112,-6.3632,0.0502,-0.0935,-0.3302,-0.0086,-0.0041,0.0166
265,8.2768,-6.0110,0.0514,-0.0926,-0.3203,-0.0077,-0.0070,0.0207
266,8.1451,-5.6556,0.0534,-0.0923,-0.3089,-0.0070,-0.0100,0.0250
267,8.0180,-5.2983,0.0558,-0.0918,-0.2963,-0.0037,-0.0110,0.0298
268,7.8997,-4.9359,0.0576,-0.0924,-0.2817,-0.0025,-0.0123,0.0338
269,7.7903,-4.5707,0.0584,-0.0929,-0.2659,-0.0002,-0.0139,0.0383
270,7.6888,-4.2014,0.0593,-0.0939,-0.2489,0.0002,-0.0152,0.0411
271,7.5911,-3.8296,0.0613,-0.0951,-0.2307,0.0021,-0.0165,0.0455
272,7.5078,-3.4537,0.0665,-0.0967,-0.2109,0.0038,-0.0185,0.0497
273,7.4324,-3.0747,0.0668,-0.0985,-0.1902,0.0052,-0.0206,0.0530
274,7.3661,-2.6937,0.0630,-0.1001,-0.1686,0.0062,-0.0226,0.0560
275,7.3122,-2.3088,0.0694,-0.1022,-0.1459,0.0061,-0.0251,0.0602
276,7.2601,-1.9232,0.0674,-0.1034,-0.1218,0.0064,-0.0251,0.0608
277,7.2234,-1.5370,0.0662,-0.1052,-0.0987,0.0082,-0.0264,0.0619
278,7.2072,-1.1477,0.0688,-0.1068,-0.0743,0.0081,-0.0278,0.0642
279,7.1940,-0.7580,0.0673,-0.1079,-0.0494,0.0085,-0.0282,0.0648
280,7.1837,-0.3675,0.0711,-0.1085,-0.0245,0.0075,-0.0277,0.0651
281,7.1740,0.0213,0.0689,-0.1084,0.0001,0.0073,-0.0278,0.0648
282,7.1779,0.4109,0.0692,-0.1083,0.0249,0.0068,-0.0291,0.0652
283,7.1970,0.8007,0.0698,-0.1074,0.0499,0.0064,-0.0281,0.0641
284,7.2168,1.1904,0.0710,-0.1063,0.0738,0.0058,-0.0271,0.0631
285,7.2373,1.5786,0.0682,-0.1049,0.0982,0.0055,-0.0267,0.0620
286,7.2753,1.9667,0.0679,-0.1033,0.1220,0.0051,-0.0269,0.0605
287,7.3331,2.3506,0.0675,-0.1010,0.1450,0.0046,-0.0234,0.0565
288,7.3923,2.7350,0.0703,-0.0988,0.1665,0.0028,-0.0215,0.0543
289,7.4590,3.1163,0.0690,-0.0966,0.1879,0.0021,-0.0193,0.0516
290,7.5401,3.4948,0.0671,-0.0950,0.2077,0.0005,-0.0187,0.0475
291,7.6316,3.8705,0.0713,-0.0927,0.2270,-0.0008,-0.0163,0.0456
292,7.7257,4.2448,0.0743,-0.0909,0.2449,-0.0022,-0.0142,0.0405
293,7.8291,4.6147,0.0703,-0.0897,0.2614,-0.0049,-0.0126,0.0357
294,7.9449,4.9792,0.0722,-0.0889,0.2762,-0.0055,-0.0107,0.0323
295,8.0599,5.3437,0.0714,-0.0885,0.2894,-0.0076,-0.0090,0.0269
296,8.1753,5.7061,0.0702,-0.0886,0.3010,-0.0101,-0.0081,0.0238
297,8.3032,6.0624,0.0683,-0.0890,0.3112,-0.0124,-0.0059,0.0199
298,8.4564,6.4096,0.0674,-0.0899,0.3205,-0.0137,-0.0042,0.0159
299,8.6105,6.7546,0.0699,-0.0914,0.3280,-0.0155,-0.0039,0.0129
300,8.7650,7.0977,0.0700,-0.0928,0.3343,-0.0169,-0.0035,0.0094
301,8.9266,7.4381,0.0693,-0.0948,0.3393,-0.0183,-0.0033,0.0072
302,9.0997,7.7713,0.0683,-0.0963,0.3432,-0.0188,-0.0023,0.0057
303,9.2742,8.1040,0.0699,-0.0973,0.3461,-0.0186,-0.0009,0.0041
304,9.4523,8.4351,0.0767,-0.0981,0.3481,-0.0179,-0.0009,0.0038
305,9.5885,8.7774,0.0840,-0.0989,0.3497,-0.0179,-0.0016,0.0031
306,9.6284,9.1446,0.0841,-0.0987,0.3505,-0.0177,-0.0019,0.0037
307,9.6403,9.5116,0.0794,-0.0980,0.3520,-0.0170,-0.0024,0.0043
308,9.6499,9.8808,0.0858,-0.0968,0.3532,-0.0172,-0.0026,0.0048
343,9.3543,8.9932,0.0768,-0.0987,0.3498,-0.0178,-0.0015,0.0041
344,9.3494,9.3348,0.0771,-0.0978,0.3515,-0.0165,-0.0019,0.0054
345,9.3563,9.6930,0.0799,-0.0968,0.3534,-0.0167,-0.0024,0.0051
346,9.3595,10.0578,0.0783,-0.0953,0.3552,-0.0165,-0.0025,0.0058
412,9.2928,-9.5703,0.0520,-0.1066,-0.3670,-0.0136,-0.0019,0.0050
413,9.2835,-9.2065,0.0520,-0.1068,-0.3653,-0.0136,-0.0022,0.0049
414,9.2544,-8.8495,0.0545,-0.1070,-0.3634,-0.0145,-0.0019,0.0045
415,9.1769,-8.4942,0.0540,-0.1056,-0.3615,-0.0142,-0.0013,0.0042
416,8.9863,8.0627,0.0720,-0.0970,0.3438,-0.0184,-0.0021,0.0057
417,9.0792,8.3946,0.0755,-0.0978,0.3462,-0.0169,-0.0017,0.0050
418,9.1607,8.7365,0.0740,-0.0983,0.3482,-0.0175,-0.0019,0.0048
419,9.0577,9.1219,0.0731,-0.0979,0.3497,-0.0169,-0.0022,0.0059
420,9.0540,9.4953,0.0745,-0.0967,0.3523,-0.0159,-0.0030,0.0067
421,9.0572,9.8635,0.0754,-0.0953,0.3547,-0.0157,-0.0037,0.0063
487,8.9670,-9.7182,0.0487,-0.1056,-0.3676,-0.0130,-0.0030,0.0065
488,8.9595,-9.3539,0.0497,-0.1060,-0.3653,-0.0128,-0.0027,0.0065
489,8.9440,-8.9950,0.0518,-0.1059,-0.3626,-0.0130,-0.0029,0.0068
490,8.9097,-8.6427,0.0523,-0.1056,-0.3603,-0.0145,-0.0030,0.0058
491,8.9017,-8.2722,0.0514,-0.1044,-0.3581,-0.0141,-0.0026,0.0061
492,8.8461,-7.9453,0.0520,-0.1029,-0.3553,-0.0137,-0.0027,0.0071
493,8.6513,7.4773,0.0707,-0.0939,0.3360,-0.0165,-0.0039,0.0087
494,8.7375,7.8244,0.0695,-0.0955,0.3398,-0.0175,-0.0035,0.0074
495,8.7290,8.2157,0.0690,-0.0966,0.3425,-0.0168,-0.0032,0.0071
496,8.7791,8.5756,0.0708,-0.0972,0.3453,-0.0165,-0.0029,0.0069
497,8.7814,8.9199,0.0705,-0.0973,0.3478,-0.0166,-0.0033,0.0072
498,8.7503,9.2958,0.0725,-0.0966,0.3505,-0.0166,-0.0038,0.0077
499,8.7476,9.6681,0.0750,-0.0947,0.3534,-0.0149,-0.0041,0.0077
500,8.7475,10.0371,0.0756,-0.0931,0.3561,-0.0144,-0.0043,0.0080
565,8.6396,-9.8866,0.0488,-0.1042,-0.3679,-0.0128,-0.0036,0.0084
566,8.6328,-9.5206,0.0493,-0.1048,-0.3651,-0.0121,-0.0036,0.0078
567,8.6224,-9.1576,0.0480,-0.1052,-0.3623,-0.0128,-0.0033,0.0082
568,8.6052,-8.7964,0.0485,-0.1049,-0.3590,-0.0131,-0.0036,0.0082
569,8.5926,-8.4303,0.0488,-0.1039,-0.3561,-0.0130,-0.0041,0.0080
570,8.5674,-8.0682,0.0511,-0.1025,-0.3528,-0.0132,-0.0040,0.0084
571,8.6130,-7.6800,0.0517,-0.1006,-0.3502,-0.0123,-0.0034,0.0089
572,8.5503,-7.3304,0.0514,-0.0986,-0.3457,-0.0117,-0.0037,0.0103
573,8.4028,6.9675,0.0691,-0.0911,0.3274,-0.0146,-0.0039,0.0118
574,8.4123,7.2780,0.0686,-0.0921,0.3306,-0.0145,-0.0040,0.0106
575,8.3983,7.6527,0.0671,-0.0935,0.3346,-0.0151,-0.0042,0.0102
576,8.4277,8.0099,0.0664,-0.0947,0.3384,-0.0156,-0.0040,0.0092
577,8.4328,8.3817,0.0667,-0.0960,0.3417,-0.0158,-0.0040,0.0087
578,8.4438,8.7404,0.0684,-0.0961,0.3447,-0.0157,-0.0045,0.0090
579,8.4405,9.1010,0.0688,-0.0957,0.3481,-0.0155,-0.0050,0.0091
580,8.4302,9.4724,0.0708,-0.0943,0.3513,-0.0148,-0.0048,0.0090
581,8.4273,9.8422,0.0707,-0.0927,0.3546,-0.0147,-0.0045,0.0093
647,8.3045,-9.6988,0.0482,-0.1033,-0.3655,-0.0122,-0.0051,0.0098
648,8.2965,-9.3318,0.0457,-0.1037,-0.3619,-0.0123,-0.0049,0.0097
649,8.2869,-8.9666,0.0466,-0.1039,-0.3584,-0.0128,-0.0044,0.0098
650,8.2769,-8.5998,0.0457,-0.1030,-0.3548,-0.0121,-0.0046,0.0098
651,8.2649,-8.2324,0.0482,-0.1017,-0.3509,-0.0114,-0.0048,0.0104
652,8.2733,-7.8541,0.0490,-0.1003,-0.3470,-0.0118,-0.0045,0.0106
653,8.2624,-7.4858,0.0484,-0.0982,-0.3428,-0.0107,-0.0043,0.0115
654,8.3089,-7.0755,0.0524,-0.0958,-0.3386,-0.0104,-0.0043,0.0133
655,8.2276,-6.7109,0.0540,-0.0940,-0.3318,-0.0103,-0.0051,0.0154
656,8.1480,-6.3640,0.0534,-0.0921,-0.3241,-0.0065,-0.0060,0.0185
657,8.0215,5.9778,0.0696,-0.0869,0.3037,-0.0106,-0.0073,0.0214
658,8.0941,6.3333,0.0676,-0.0880,0.3125,-0.0126,-0.0057,0.0184
659,8.1767,6.6967,0.0701,-0.0894,0.3199,-0.0139,-0.0047,0.0151
660,8.0947,7.0736,0.0671,-0.0901,0.3237,-0.0137,-0.0046,0.0132
661,8.0994,7.4400,0.0672,-0.0914,0.3284,-0.0137,-0.0041,0.0121
662,8.0987,7.8132,0.0656,-0.0928,0.3325,-0.0143,-0.0041,0.0112
663,8.1095,8.1792,0.0665,-0.0941,0.3368,-0.0152,-0.0051,0.0109
664,8.1102,8.5466,0.0672,-0.0944,0.3407,-0.0143,-0.0056,0.0108
665,8.1111,8.9115,0.0692,-0.0942,0.3447,-0.0132,-0.0055,0.0109
666,8.1080,9.2780,0.0690,-0.0932,0.3486,-0.0136,-0.0054,0.0106
667,8.1028,9.6485,0.0692,-0.0920,0.3525,-0.0136,-0.0051,0.0105
668,8.0998,10.0181,0.0680,-0.0902,0.3564,-0.0131,-0.0053,0.0109
733,7.9737,-9.8807,0.0437,-0.1010,-0.3663,-0.0105,-0.0063,0.0112
734,7.9691,-9.5127,0.0464,-0.1013,-0.3622,-0.0105,-0.0062,0.0113
735,7.9621,-9.1450,0.0464,-0.1023,-0.3580,-0.0119,-0.0060,0.0116
736,7.9543,-8.7773,0.0445,-0.1019,-0.3535,-0.0112,-0.0057,0.0115
737,7.9469,-8.4088,0.0448,-0.1008,-0.3493,-0.0104,-0.0053,0.0120
738,7.9467,-8.0358,0.0469,-0.0994,-0.3447,-0.0110,-0.0054,0.0126
739,7.9436,-7.6654,0.0484,-0.0977,-0.3399,-0.0099,-0.0053,0.0127
740,7.9574,-7.2891,0.0482,-0.0957,-0.3353,-0.0103,-0.0051,0.0140
741,7.9386,-6.9309,0.0499,-0.0934,-0.3293,-0.0099,-0.0056,0.0161
742,7.8873,-6.5655,0.0523,-0.0913,-0.3222,-0.0081,-0.0062,0.0183
743,7.8990,-6.1822,0.0515,-0.0901,-0.3148,-0.0061,-0.0071,0.0205
744,7.8905,-5.8546,0.0523,-0.0894,-0.3077,-0.0054,-0.0086,0.0238
745,7.8277,-5.5148,0.0552,-0.0892,-0.2976,-0.0039,-0.0104,0.0271
746,7.7285,5.0591,0.0686,-0.0861,0.2741,-0.0054,-0.0108,0.0314
747,7.7865,5.4357,0.0703,-0.0857,0.2857,-0.0072,-0.0090,0.0270
748,7.7796,5.7653,0.0687,-0.0853,0.2941,-0.0091,-0.0081,0.0244
749,7.7590,6.1456,0.0643,-0.0852,0.3021,-0.0104,-0.0069,0.0210
750,7.8012,6.5109,0.0641,-0.0868,0.3099,-0.0126,-0.0063,0.0179
751,7.8066,6.8613,0.0652,-0.0879,0.3158,-0.0131,-0.0058,0.0159
752,7.7812,7.2369,0.0630,-0.0892,0.3212,-0.0130,-0.0052,0.0146
753,7.7803,7.6087,0.0623,-0.0909,0.3263,-0.0142,-0.0049,0.0132
754,7.7799,7.9789,0.0619,-0.0918,0.3309,-0.0149,-0.0055,0.0127
755,7.7824,8.3475,0.0661,-0.0921,0.3355,-0.0135,-0.0062,0.0128
756,7.7800,8.7161,0.0661,-0.0926,0.3404,-0.0132,-0.0062,0.0128
757,7.7785,9.0847,0.0683,-0.0920,0.3450,-0.0129,-0.0059,0.0122
758,7.7748,9.4539,0.0668,-0.0911,0.3494,-0.0131,-0.0060,0.0118
759,7.7713,9.8237,0.0660,-0.0895,0.3535,-0.0128,-0.0062,0.0120
825,7.6391,-9.6962,0.0433,-0.0990,-0.3626,-0.0094,-0.0067,0.0127
826,7.6334,-9.3271,0.0430,-0.0998,-0.3579,-0.0102,-0.0066,0.0131
827,7.6280,-8.9581,0.0434,-0.0999,-0.3529,-0.0106,-0.0069,0.0131
828,7.6228,-8.5891,0.0451,-0.0995,-0.3482,-0.0101,-0.0065,0.0133
829,7.6184,-8.2184,0.0415,-0.0982,-0.3429,-0.0101,-0.0062,0.0144
830,7.6169,-7.8483,0.0456,-0.0968,-0.3375,-0.0102,-0.0062,0.0144
831,7.6193,-7.4768,0.0470,-0.0949,-0.3322,-0.0091,-0.0062,0.0148
832,7.6120,-7.1123,0.0457,-0.0925,-0.3264,-0.0082,-0.0063,0.0167
833,7.5934,-6.7476,0.0488,-0.0902,-0.3196,-0.0074,-0.0065,0.0187
834,7.5841,-6.3693,0.0490,-0.0887,-0.3120,-0.0071,-0.0070,0.0207
835,7.5723,-6.0037,0.0505,-0.0870,-0.3040,-0.0051,-0.0077,0.0234
836,7.5558,-5.6374,0.0538,-0.0863,-0.2943,-0.0044,-0.0091,0.0272
837,7.6211,-5.2340,0.0564,-0.0874,-0.2845,-0.0017,-0.0111,0.0309
838,7.5544,-4.8503,0.0598,-0.0884,-0.2705,0.0000,-0.0132,0.0356
839,7.4831,-4.4742,0.0602,-0.0886,-0.2544,0.0015,-0.0148,0.0398
840,7.4252,-4.1093,0.0626,-0.0906,-0.2385,0.0018,-0.0158,0.0419
841,7.4221,4.0935,0.0717,-0.0873,0.2323,-0.0010,-0.0158,0.0425
842,7.4611,4.4485,0.0716,-0.0857,0.2470,-0.0027,-0.0138,0.0382
843,7.4829,4.8029,0.0705,-0.0842,0.2601,-0.0045,-0.0121,0.0340
844,7.4543,5.1959,0.0671,-0.0829,0.2718,-0.0064,-0.0102,0.0298
845,7.4601,5.5598,0.0680,-0.0824,0.2818,-0.0074,-0.0090,0.0267
846,7.4612,5.9279,0.0656,-0.0827,0.2913,-0.0098,-0.0079,0.0238
847,7.4611,6.3049,0.0618,-0.0837,0.2996,-0.0107,-0.0072,0.0209
848,7.4698,6.6695,0.0623,-0.0849,0.3069,-0.0115,-0.0068,0.0184
849,7.4676,7.0347,0.0635,-0.0864,0.3131,-0.0113,-0.0065,0.0168
850,7.4573,7.4075,0.0610,-0.0881,0.3189,-0.0126,-0.0066,0.0158
851,7.4545,7.7790,0.0615,-0.0895,0.3246,-0.0133,-0.0066,0.0151
852,7.4526,8.1491,0.0637,-0.0900,0.3301,-0.0125,-0.0064,0.0145
853,7.4505,8.5193,0.0646,-0.0902,0.3353,-0.0122,-0.0069,0.0142
854,7.4473,8.8888,0.0643,-0.0901,0.3405,-0.0120,-0.0074,0.0138
855,7.4442,9.2584,0.0639,-0.0894,0.3453,-0.0123,-0.0073,0.0134
856,7.4415,9.6281,0.0642,-0.0879,0.3503,-0.0119,-0.0073,0.0133
857,7.4392,9.9985,0.0654,-0.0863,0.3550,-0.0120,-0.0069,0.0135
922,7.3093,-9.8798,0.0402,-0.0962,-0.3633,-0.0093,-0.0078,0.0142
923,7.3039,-9.5104,0.0407,-0.0972,-0.3580,-0.0091,-0.0076,0.0143
924,7.2989,-9.1409,0.0411,-0.0977,-0.3527,-0.0096,-0.0079,0.0146
925,7.2939,-8.7714,0.0400,-0.0974,-0.3473,-0.0097,-0.0079,0.0149
926,7.2902,-8.4011,0.0408,-0.0967,-0.3417,-0.0095,-0.0077,0.0155
927,7.2873,-8.0306,0.0415,-0.0953,-0.3357,-0.0091,-0.0074,0.0159
928,7.2864,-7.6601,0.0434,-0.0937,-0.3299,-0.0093,-0.0076,0.0161
929,7.2816,-7.2907,0.0407,-0.0915,-0.3237,-0.0082,-0.0074,0.0172
930,7.2746,-6.9234,0.0441,-0.0892,-0.3171,-0.0078,-0.0065,0.0190
931,7.2690,-6.5509,0.0471,-0.0871,-0.3093,-0.0073,-0.0067,0.0211
932,7.2597,-6.1785,0.0487,-0.0854,-0.3010,-0.0059,-0.0077,0.0230
933,7.2510,-5.8057,0.0516,-0.0839,-0.2918,-0.0037,-0.0084,0.0264
934,7.2694,-5.4208,0.0555,-0.0836,-0.2814,-0.0025,-0.0098,0.0294
935,7.2616,-5.0569,0.0566,-0.0839,-0.2703,-0.0001,-0.0118,0.0326
936,7.2198,-4.6831,0.0601,-0.0840,-0.2566,0.0019,-0.0133,0.0375
937,7.1782,-4.3036,0.0604,-0.0851,-0.2407,0.0028,-0.0145,0.0411
938,7.1967,-3.9150,0.0624,-0.0880,-0.2252,0.0027,-0.0166,0.0438
939,7.2191,-3.5824,0.0625,-0.0902,-0.2107,0.0041,-0.0175,0.0478
940,7.1698,-3.2196,0.0630,-0.0921,-0.1922,0.0054,-0.0193,0.0512
941,7.1231,-2.8490,0.0649,-0.0934,-0.1723,0.0065,-0.0212,0.0539
942,7.0964,-2.4843,0.0649,-0.0952,-0.1523,0.0072,-0.0229,0.0568
943,7.0348,1.8591,0.0747,-0.0973,0.1127,0.0065,-0.0255,0.0603
944,7.0551,2.2390,0.0717,-0.0951,0.1350,0.0063,-0.0237,0.0575
945,7.0919,2.6242,0.0710,-0.0929,0.1561,0.0039,-0.0217,0.0541
946,7.1341,3.0130,0.0705,-0.0909,0.1768,0.0023,-0.0203,0.0520
947,7.1853,3.4030,0.0720,-0.0888,0.1970,0.0018,-0.0190,0.0479
948,7.2309,3.7991,0.0723,-0.0865,0.2154,0.0006,-0.0173,0.0452
949,7.1380,4.2125,0.0706,-0.0818,0.2312,-0.0008,-0.0149,0.0409
950,7.1470,4.5956,0.0675,-0.0808,0.2457,-0.0030,-0.0126,0.0362
951,7.1533,4.9690,0.0682,-0.0799,0.2583,-0.0043,-0.0114,0.0324
952,7.1404,5.3482,0.0650,-0.0794,0.2698,-0.0059,-0.0102,0.0289
953,7.1415,5.7218,0.0656,-0.0796,0.2797,-0.0074,-0.0088,0.0260
954,7.1419,6.0955,0.0639,-0.0805,0.2888,-0.0093,-0.0080,0.0234
955,7.1397,6.4679,0.0631,-0.0818,0.2971,-0.0100,-0.0072,0.0210
956,7.1381,6.8376,0.0610,-0.0835,0.3042,-0.0106,-0.0068,0.0188
957,7.1343,7.2065,0.0623,-0.0847,0.3108,-0.0101,-0.0068,0.0178
958,7.1283,7.5791,0.0619,-0.0863,0.3172,-0.0116,-0.0072,0.0174
959,7.1237,7.9502,0.0611,-0.0875,0.3235,-0.0113,-0.0074,0.0166
960,7.1199,8.3216,0.0608,-0.0878,0.3294,-0.0110,-0.0074,0.0157
961,7.1170,8.6919,0.0614,-0.0876,0.3350,-0.0113,-0.0077,0.0154
962,7.1145,9.0619,0.0635,-0.0871,0.3406,-0.0116,-0.0079,0.0151
963,7.1112,9.4328,0.0636,-0.0863,0.3461,-0.0113,-0.0076,0.0153
964,7.1077,9.8037,0.0619,-0.0847,0.3520,-0.0106,-0.0073,0.0149
1030,6.9740,-9.6942,0.0370,-0.0942,-0.3587,-0.0085,-0.0088,0.0157
1031,6.9694,-9.3243,0.0374,-0.0945,-0.3528,-0.0085,-0.0093,0.0160
1032,6.9647,-8.9547,0.0372,-0.0948,-0.3468,-0.0089,-0.0090,0.0166
1033,6.9614,-8.5841,0.0391,-0.0942,-0.3403,-0.0088,-0.0087,0.0168
1034,6.9577,-8.2136,0.0391,-0.0934,-0.3344,-0.0084,-0.0086,0.0169
1035,6.9561,-7.8429,0.0420,-0.0919,-0.3280,-0.0085,-0.0085,0.0175
1036,6.9529,-7.4721,0.0410,-0.0896,-0.3212,-0.0074,-0.0084,0.0186
1037,6.9487,-7.1029,0.0420,-0.0878,-0.3142,-0.0075,-0.0077,0.0191
1038,6.9448,-6.7314,0.0442,-0.0862,-0.3068,-0.0080,-0.0076,0.0212
1039,6.9396,-6.3593,0.0450,-0.0838,-0.2987,-0.0063,-0.0081,0.0226
1040,6.9339,-5.9852,0.0476,-0.0818,-0.2896,-0.0032,-0.0086,0.0254
1041,6.9366,-5.6076,0.0501,-0.0807,-0.2797,-0.0026,-0.0096,0.0286
1042,6.9347,-5.2359,0.0543,-0.0800,-0.2685,-0.0008,-0.0110,0.0314
1043,6.9206,-4.8665,0.0566,-0.0797,-0.2561,0.0012,-0.0121,0.0350
1044,6.8967,-4.4885,0.0570,-0.0806,-0.2419,0.0015,-0.0131,0.0392
1045,6.8896,-4.1013,0.0593,-0.0818,-0.2261,0.0025,-0.0155,0.0419
1046,6.8871,-3.7261,0.0607,-0.0836,-0.2102,0.0040,-0.0171,0.0449
1047,6.8788,-3.3640,0.0608,-0.0856,-0.1937,0.0046,-0.0181,0.0485
1048,6.8502,-2.9877,0.0621,-0.0868,-0.1745,0.0063,-0.0193,0.0518
1049,6.8317,-2.5961,0.0645,-0.0889,-0.1541,0.0073,-0.0202,0.0549
1050,6.9297,-2.1790,0.0638,-0.0935,-0.1325,0.0069,-0.0231,0.0583
1051,6.9105,-1.7793,0.0674,-0.0954,-0.1095,0.0077,-0.0246,0.0597
1052,6.8903,-1.3840,0.0682,-0.0971,-0.0859,0.0080,-0.0257,0.0618
1053,6.8777,-0.9928,0.0675,-0.0979,-0.0621,0.0086,-0.0262,0.0627
