# Name : Kerbbereich
# Stage: 1
# Units: length:mm angle:deg time:s 
id,x,y,z,displacement_x,displacement_y,displacement_z,epsilon_x,epsilon_y
87,-9.7113,9.0754,-0.0769,0.0000,0.0000,0.0000,0.0000,0.0000
88,-9.7414,8.7194,-0.0700,0.0000,0.0000,0.0000,0.0000,0.0000
89,-9.7667,8.3616,-0.0709,0.0000,0.0000,0.0000,0.0000,0.0000
90,-9.6319,8.0409,-0.0684,0.0000,0.0000,0.0000,0.0000,0.0000
91,-9.4352,7.7419,-0.0693,0.0000,0.0000,0.0000,0.0000,0.0000
92,-9.2439,7.4353,-0.0629,0.0000,0.0000,0.0000,0.0000,0.0000
93,-9.0694,7.1231,-0.0690,0.0000,0.0000,0.0000,0.0000,0.0000
94,-8.9013,6.8050,-0.0658,0.0000,0.0000,0.0000,0.0000,0.0000
95,-8.7537,6.4799,-0.0602,0.0000,0.0000,0.0000,0.0000,0.0000
96,-8.6163,6.1470,-0.0624,0.0000,0.0000,0.0000,0.0000,0.0000
97,-8.4922,5.8107,-0.0642,0.0000,0.0000,0.0000,0.0000,0.0000
98,-8.3721,5.4727,-0.0580,0.0000,0.0000,0.0000,0.0000,0.0000
99,-8.2380,5.1389,-0.0545,0.0000,0.0000,0.0000,0.0000,0.0000
100,-8.1034,4.8060,-0.0588,0.0000,0.0000,0.0000,0.0000,0.0000
101,-8.0030,4.4643,-0.0583,0.0000,0.0000,0.0000,0.0000,0.0000
102,-7.9228,4.1132,-0.0516,0.0000,0.0000,0.0000,0.0000,0.0000
103,-7.8352,3.7662,-0.0544,0.0000,0.0000,0.0000,0.0000,0.0000
104,-7.7374,3.4211,-0.0517,0.0000,0.0000,0.0000,0.0000,0.0000
105,-7.6519,3.0727,-0.0539,0.0000,0.0000,0.0000,0.0000,0.0000
106,-7.5789,2.7209,-0.0567,0.0000,0.0000,0.0000,0.0000,0.0000
107,-7.5139,2.3676,-0.0538,0.0000,0.0000,0.0000,0.0000,0.0000
108,-7.4621,2.0141,-0.0519,0.0000,0.0000,0.0000,0.0000,0.0000
109,-7.4193,1.6583,-0.0493,0.0000,0.0000,0.0000,0.0000,0.0000
110,-7.3788,1.3015,-0.0546,0.0000,0.0000,0.0000,0.0000,0.0000
111,-7.3383,0.9442,-0.0601,0.0000,0.0000,0.0000,0.0000,0.0000
112,-7.3022,0.5887,-0.0608,0.0000,0.0000,0.0000,0.0000,0.0000
113,-7.2858,0.2307,-0.0574,0.0000,0.0000,0.0000,0.0000,0.0000
114,-7.2867,-0.1285,-0.0561,0.0000,0.0000,0.0000,0.0000,0.0000
115,-7.2972,-0.4874,-0.0622,0.0000,0.0000,0.0000,0.0000,0.0000
116,-7.3157,-0.8461,-0.0533,0.0000,0.0000,0.0000,0.0000,0.0000
117,-7.3426,-1.2022,-0.0579,0.0000,0.0000,0.0000,0.0000,0.0000
118,-7.3774,-1.5592,-0.0651,0.0000,0.0000,0.0000,0.0000,0.0000
119,-7.4204,-1.9163,-0.0595,0.0000,0.0000,0.0000,0.0000,0.0000
120,-7.4679,-2.2725,-0.0620,0.0000,0.0000,0.0000,0.0000,0.0000
121,-7.5231,-2.6268,-0.0634,0.0000,0.0000,0.0000,0.0000,0.0000
122,-7.5927,-2.9782,-0.0599,0.0000,0.0000,0.0000,0.0000,0.0000
123,-7.6691,-3.3292,-0.0667,0.0000,0.0000,0.0000,0.0000,0.0000
124,-7.7455,-3.6791,-0.0682,0.0000,0.0000,0.0000,0.0000,0.0000
125,-7.8294,-4.0288,-0.0712,0.0000,0.0000,0.0000,0.0000,0.0000
126,-7.9228,-4.3752,-0.0760,0.0000,0.0000,0.0000,0.0000,0.0000
127,-8.0192,-4.7211,-0.0783,0.0000,0.0000,0.0000,0.0000,0.0000
128,-8.1310,-5.0621,-0.0782,0.0000,0.0000,0.0000,0.0000,0.0000
129,-8.2663,-5.3953,-0.0799,0.0000,0.0000,0.0000,0.0000,0.0000
130,-8.4031,-5.7285,-0.0825,0.0000,0.0000,0.0000,0.0000,0.0000
131,-8.5458,-6.0589,-0.0860,0.0000,0.0000,0.0000,0.0000,0.0000
132,-8.6928,-6.3864,-0.0887,0.0000,0.0000,0.0000,0.0000,0.0000
133,-8.8435,-6.7116,-0.0926,0.0000,0.0000,0.0000,0.0000,0.0000
134,-9.0007,-7.0357,-0.0925,0.0000,0.0000,0.0000,0.0000,0.0000
135,-9.1623,-7.3574,-0.0918,0.0000,0.0000,0.0000,0.0000,0.0000
136,-9.3252,-7.6777,-0.0948,0.0000,0.0000,0.0000,0.0000,0.0000
137,-9.4917,-7.9961,-0.0939,0.0000,0.0000,0.0000,0.0000,0.0000
138,-9.6641,-8.3090,-0.0872,0.0000,0.0000,0.0000,0.0000,0.0000
139,-9.7469,-8.6498,-0.0932,0.0000,0.0000,0.0000,0.0000,0.0000
140,-9.7463,-9.0093,-0.0967,0.0000,0.0000,0.0000,0.0000,0.0000
141,-9.7462,-9.3666,-0.1017,0.0000,0.0000,0.0000,0.0000,0.0000
142,-9.7447,-9.7212,-0.1015,0.0000,0.0000,0.0000,0.0000,0.0000
254,9.7296,-9.4436,0.0682,0.0000,0.0000,0.0000,0.0000,0.0000
255,9.7203,-9.0779,0.0686,0.0000,0.0000,0.0000,0.0000,0.0000
256,9.7111,-8.7137,0.0689,0.0000,0.0000,0.0000,0.0000,0.0000
257,9.6508,-8.3531,0.0670,0.0000,0.0000,0.0000,0.0000,0.0000
258,9.4835,-8.0250,0.0695,0.0000,0.0000,0.0000,0.0000,0.0000
259,9.3004,-7.7032,0.0708,0.0000,0.0000,0.0000,0.0000,0.0000
260,9.1344,-7.3714,0.0679,0.0000,0.0000,0.0000,0.0000,0.0000
261,8.9778,-7.0366,0.0661,0.0000,0.0000,0.0000,0.0000,0.0000
262,8.8144,-6.7051,0.0665,0.0000,0.0000,0.0000,0.0000,0.0000
263,8.6560,-6.3716,0.0653,0.0000,0.0000,0.0000,0.0000,0.0000
264,8.5059,-6.0334,0.0604,0.0000,0.0000,0.0000,0.0000,0.0000
265,8.3705,-5.6911,0.0606,0.0000,0.0000,0.0000,0.0000,0.0000
266,8.2386,-5.3471,0.0618,0.0000,0.0000,0.0000,0.0000,0.0000
267,8.1109,-5.0024,0.0609,0.0000,0.0000,0.0000,0.0000,0.0000
268,7.9931,-4.6545,0.0614,0.0000,0.0000,0.0000,0.0000,0.0000
269,7.8841,-4.3051,0.0600,0.0000,0.0000,0.0000,0.0000,0.0000
270,7.7837,-3.9529,0.0603,0.0000,0.0000,0.0000,0.0000,0.0000
271,7.6870,-3.5993,0.0603,0.0000,0.0000,0.0000,0.0000,0.0000
272,7.6052,-3.2431,0.0637,0.0000,0.0000,0.0000,0.0000,0.0000
273,7.5316,-2.8849,0.0624,0.0000,0.0000,0.0000,0.0000,0.0000
274,7.4668,-2.5255,0.0576,0.0000,0.0000,0.0000,0.0000,0.0000
275,7.4149,-2.1632,0.0640,0.0000,0.0000,0.0000,0.0000,0.0000
276,7.3640,-1.8017,0.0616,0.0000,0.0000,0.0000,0.0000,0.0000
277,7.3289,-1.4387,0.0585,0.0000,0.0000,0.0000,0.0000,0.0000
278,7.3143,-1.0737,0.0610,0.0000,0.0000,0.0000,0.0000,0.0000
279,7.3021,-0.7089,0.0591,0.0000,0.0000,0.0000,0.0000,0.0000
280,7.2922,-0.3434,0.0636,0.0000,0.0000,0.0000,0.0000,0.0000
281,7.2824,0.0208,0.0616,0.0000,0.0000,0.0000,0.0000,0.0000
282,7.2860,0.3856,0.0623,0.0000,0.0000,0.0000,0.0000,0.0000
283,7.3042,0.7505,0.0632,0.0000,0.0000,0.0000,0.0000,0.0000
284,7.3228,1.1162,0.0649,0.0000,0.0000,0.0000,0.0000,0.0000
285,7.3418,1.4800,0.0622,0.0000,0.0000,0.0000,0.0000,0.0000
286,7.3781,1.8443,0.0622,0.0000,0.0000,0.0000,0.0000,0.0000
287,7.4335,2.2053,0.0622,0.0000,0.0000,0.0000,0.0000,0.0000
288,7.4904,2.5682,0.0667,0.0000,0.0000,0.0000,0.0000,0.0000
289,7.5548,2.9281,0.0660,0.0000,0.0000,0.0000,0.0000,0.0000
290,7.6344,3.2867,0.0655,0.0000,0.0000,0.0000,0.0000,0.0000
291,7.7234,3.6431,0.0710,0.0000,0.0000,0.0000,0.0000,0.0000
292,7.8157,3.9996,0.0753,0.0000,0.0000,0.0000,0.0000,0.0000
293,7.9179,4.3530,0.0739,0.0000,0.0000,0.0000,0.0000,0.0000
294,8.0328,4.7027,0.0764,0.0000,0.0000,0.0000,0.0000,0.0000
295,8.1473,5.0540,0.0776,0.0000,0.0000,0.0000,0.0000,0.0000
296,8.2628,5.4047,0.0788,0.0000,0.0000,0.0000,0.0000,0.0000
297,8.3911,5.7507,0.0792,0.0000,0.0000,0.0000,0.0000,0.0000
298,8.5451,6.0888,0.0796,0.0000,0.0000,0.0000,0.0000,0.0000
299,8.7006,6.4261,0.0838,0.0000,0.0000,0.0000,0.0000,0.0000
300,8.8566,6.7630,0.0852,0.0000,0.0000,0.0000,0.0000,0.0000
301,9.0201,7.0984,0.0860,0.0000,0.0000,0.0000,0.0000,0.0000
302,9.1947,7.4277,0.0855,0.0000,0.0000,0.0000,0.0000,0.0000
303,9.3702,7.7575,0.0868,0.0000,0.0000,0.0000,0.0000,0.0000
304,9.5491,8.0866,0.0929,0.0000,0.0000,0.0000,0.0000,0.0000
305,9.6862,8.4272,0.1002,0.0000,0.0000,0.0000,0.0000,0.0000
306,9.7258,8.7937,0.1001,0.0000,0.0000,0.0000,0.0000,0.0000
307,9.7369,9.1592,0.0947,0.0000,0.0000,0.0000,0.0000,0.0000
308,9.7454,9.5271,0.1013,0.0000,0.0000,0.0000,0.0000,0.0000
343,9.4516,8.6429,0.0929,0.0000,0.0000,0.0000,0.0000,0.0000
344,9.4458,8.9829,0.0919,0.0000,0.0000,0.0000,0.0000,0.0000
345,9.4518,9.3392,0.0948,0.0000,0.0000,0.0000,0.0000,0.0000
346,9.4535,9.7022,0.0930,0.0000,0.0000,0.0000,0.0000,0.0000
412,9.4007,-9.2038,0.0674,0.0000,0.0000,0.0000,0.0000,0.0000
413,9.3917,-8.8416,0.0673,0.0000,0.0000,0.0000,0.0000,0.0000
414,9.3627,-8.4866,0.0708,0.0000,0.0000,0.0000,0.0000,0.0000
415,9.2839,-8.1332,0.0699,0.0000,0.0000,0.0000,0.0000,0.0000
416,9.0820,7.7184,0.0887,0.0000,0.0000,0.0000,0.0000,0.0000
417,9.1757,8.0480,0.0907,0.0000,0.0000,0.0000,0.0000,0.0000
418,9.2577,8.3879,0.0898,0.0000,0.0000,0.0000,0.0000,0.0000
419,9.1543,8.7717,0.0882,0.0000,0.0000,0.0000,0.0000,0.0000
420,9.1494,9.1426,0.0887,0.0000,0.0000,0.0000,0.0000,0.0000
421,9.1512,9.5085,0.0894,0.0000,0.0000,0.0000,0.0000,0.0000
487,9.0740,-9.3510,0.0635,0.0000,0.0000,0.0000,0.0000,0.0000
488,9.0668,-8.9890,0.0642,0.0000,0.0000,0.0000,0.0000,0.0000
489,9.0513,-8.6328,0.0666,0.0000,0.0000,0.0000,0.0000,0.0000
490,9.0167,-8.2829,0.0685,0.0000,0.0000,0.0000,0.0000,0.0000
491,9.0074,-7.9146,0.0672,0.0000,0.0000,0.0000,0.0000,0.0000
492,8.9504,-7.5905,0.0674,0.0000,0.0000,0.0000,0.0000,0.0000
493,8.7440,7.1409,0.0856,0.0000,0.0000,0.0000,0.0000,0.0000
494,8.8317,7.4842,0.0854,0.0000,0.0000,0.0000,0.0000,0.0000
495,8.8243,7.8728,0.0841,0.0000,0.0000,0.0000,0.0000,0.0000
496,8.8750,8.2298,0.0856,0.0000,0.0000,0.0000,0.0000,0.0000
497,8.8775,8.5717,0.0854,0.0000,0.0000,0.0000,0.0000,0.0000
498,8.8456,8.9449,0.0875,0.0000,0.0000,0.0000,0.0000,0.0000
499,8.8410,9.3143,0.0882,0.0000,0.0000,0.0000,0.0000,0.0000
500,8.8393,9.6805,0.0882,0.0000,0.0000,0.0000,0.0000,0.0000
565,8.7451,-9.5191,0.0634,0.0000,0.0000,0.0000,0.0000,0.0000
566,8.7390,-9.1560,0.0631,0.0000,0.0000,0.0000,0.0000,0.0000
567,8.7289,-8.7957,0.0626,0.0000,0.0000,0.0000,0.0000,0.0000
568,8.7114,-8.4378,0.0633,0.0000,0.0000,0.0000,0.0000,0.0000
569,8.6978,-8.0746,0.0635,0.0000,0.0000,0.0000,0.0000,0.0000
570,8.6712,-7.7158,0.0659,0.0000,0.0000,0.0000,0.0000,0.0000
571,8.7150,-7.3303,0.0657,0.0000,0.0000,0.0000,0.0000,0.0000
572,8.6502,-6.9851,0.0648,0.0000,0.0000,0.0000,0.0000,0.0000
573,8.4927,6.6397,0.0821,0.0000,0.0000,0.0000,0.0000,0.0000
574,8.5032,6.9470,0.0814,0.0000,0.0000,0.0000,0.0000,0.0000
575,8.4905,7.3178,0.0806,0.0000,0.0000,0.0000,0.0000,0.0000
576,8.5212,7.6711,0.0804,0.0000,0.0000,0.0000,0.0000,0.0000
577,8.5275,8.0396,0.0808,0.0000,0.0000,0.0000,0.0000,0.0000
578,8.5386,8.3953,0.0825,0.0000,0.0000,0.0000,0.0000,0.0000
579,8.5349,8.7525,0.0826,0.0000,0.0000,0.0000,0.0000,0.0000
580,8.5232,9.1207,0.0839,0.0000,0.0000,0.0000,0.0000,0.0000
581,8.5187,9.4872,0.0837,0.0000,0.0000,0.0000,0.0000,0.0000
647,8.4091,-9.3337,0.0622,0.0000,0.0000,0.0000,0.0000,0.0000
648,8.4015,-8.9704,0.0597,0.0000,0.0000,0.0000,0.0000,0.0000
649,8.3921,-8.6087,0.0612,0.0000,0.0000,0.0000,0.0000,0.0000
650,8.3812,-8.2455,0.0595,0.0000,0.0000,0.0000,0.0000,0.0000
651,8.3679,-7.8820,0.0613,0.0000,0.0000,0.0000,0.0000,0.0000
652,8.3750,-7.5075,0.0624,0.0000,0.0000,0.0000,0.0000,0.0000
653,8.3619,-7.1434,0.0607,0.0000,0.0000,0.0000,0.0000,0.0000
654,8.4059,-6.7374,0.0644,0.0000,0.0000,0.0000,0.0000,0.0000
655,8.3228,-6.3796,0.0659,0.0000,0.0000,0.0000,0.0000,0.0000
656,8.2413,-6.0402,0.0615,0.0000,0.0000,0.0000,0.0000,0.0000
657,8.1072,5.6738,0.0787,0.0000,0.0000,0.0000,0.0000,0.0000
658,8.1809,6.0204,0.0786,0.0000,0.0000,0.0000,0.0000,0.0000
659,8.2650,6.3763,0.0825,0.0000,0.0000,0.0000,0.0000,0.0000
660,8.1836,6.7495,0.0792,0.0000,0.0000,0.0000,0.0000,0.0000
661,8.1896,7.1113,0.0793,0.0000,0.0000,0.0000,0.0000,0.0000
662,8.1903,7.4803,0.0784,0.0000,0.0000,0.0000,0.0000,0.0000
663,8.2023,7.8421,0.0800,0.0000,0.0000,0.0000,0.0000,0.0000
664,8.2033,8.2055,0.0799,0.0000,0.0000,0.0000,0.0000,0.0000
665,8.2039,8.5664,0.0807,0.0000,0.0000,0.0000,0.0000,0.0000
666,8.1999,8.9290,0.0809,0.0000,0.0000,0.0000,0.0000,0.0000
667,8.1936,9.2956,0.0810,0.0000,0.0000,0.0000,0.0000,0.0000
668,8.1887,9.6613,0.0793,0.0000,0.0000,0.0000,0.0000,0.0000
733,8.0760,-9.5149,0.0559,0.0000,0.0000,0.0000,0.0000,0.0000
734,8.0718,-9.1510,0.0587,0.0000,0.0000,0.0000,0.0000,0.0000
735,8.0657,-8.7875,0.0600,0.0000,0.0000,0.0000,0.0000,0.0000
736,8.0576,-8.4242,0.0574,0.0000,0.0000,0.0000,0.0000,0.0000
737,8.0490,-8.0599,0.0569,0.0000,0.0000,0.0000,0.0000,0.0000
738,8.0474,-7.6916,0.0596,0.0000,0.0000,0.0000,0.0000,0.0000
739,8.0425,-7.3260,0.0600,0.0000,0.0000,0.0000,0.0000,0.0000
740,8.0544,-6.9542,0.0601,0.0000,0.0000,0.0000,0.0000,0.0000
741,8.0332,-6.6020,0.0613,0.0000,0.0000,0.0000,0.0000,0.0000
742,7.9798,-6.2436,0.0619,0.0000,0.0000,0.0000,0.0000,0.0000
743,7.9903,-5.8677,0.0591,0.0000,0.0000,0.0000,0.0000,0.0000
744,7.9811,-5.5473,0.0592,0.0000,0.0000,0.0000,0.0000,0.0000
745,7.9180,-5.2176,0.0605,0.0000,0.0000,0.0000,0.0000,0.0000
746,7.8136,4.7847,0.0726,0.0000,0.0000,0.0000,0.0000,0.0000
747,7.8712,5.1497,0.0761,0.0000,0.0000,0.0000,0.0000,0.0000
748,7.8638,5.4707,0.0764,0.0000,0.0000,0.0000,0.0000,0.0000
749,7.8430,5.8432,0.0732,0.0000,0.0000,0.0000,0.0000,0.0000
750,7.8869,6.2006,0.0753,0.0000,0.0000,0.0000,0.0000,0.0000
751,7.8933,6.5452,0.0768,0.0000,0.0000,0.0000,0.0000,0.0000
752,7.8691,6.9153,0.0744,0.0000,0.0000,0.0000,0.0000,0.0000
753,7.8700,7.2820,0.0749,0.0000,0.0000,0.0000,0.0000,0.0000
754,7.8705,7.6476,0.0752,0.0000,0.0000,0.0000,0.0000,0.0000
755,7.8732,8.0116,0.0780,0.0000,0.0000,0.0000,0.0000,0.0000
756,7.8713,8.3754,0.0777,0.0000,0.0000,0.0000,0.0000,0.0000
757,7.8692,8.7393,0.0794,0.0000,0.0000,0.0000,0.0000,0.0000
758,7.8646,9.1041,0.0782,0.0000,0.0000,0.0000,0.0000,0.0000
759,7.8595,9.4699,0.0771,0.0000,0.0000,0.0000,0.0000,0.0000
825,7.7394,-9.3340,0.0545,0.0000,0.0000,0.0000,0.0000,0.0000
826,7.7345,-8.9696,0.0549,0.0000,0.0000,0.0000,0.0000,0.0000
827,7.7292,-8.6056,0.0557,0.0000,0.0000,0.0000,0.0000,0.0000
828,7.7236,-8.2413,0.0569,0.0000,0.0000,0.0000,0.0000,0.0000
829,7.7179,-7.8758,0.0532,0.0000,0.0000,0.0000,0.0000,0.0000
830,7.7149,-7.5113,0.0575,0.0000,0.0000,0.0000,0.0000,0.0000
831,7.7154,-7.1450,0.0577,0.0000,0.0000,0.0000,0.0000,0.0000
832,7.7057,-6.7863,0.0555,0.0000,0.0000,0.0000,0.0000,0.0000
833,7.6848,-6.4284,0.0577,0.0000,0.0000,0.0000,0.0000,0.0000
834,7.6740,-6.0576,0.0575,0.0000,0.0000,0.0000,0.0000,0.0000
835,7.6603,-5.7001,0.0571,0.0000,0.0000,0.0000,0.0000,0.0000
836,7.6432,-5.3434,0.0596,0.0000,0.0000,0.0000,0.0000,0.0000
837,7.7096,-4.9498,0.0594,0.0000,0.0000,0.0000,0.0000,0.0000
838,7.6438,-4.5802,0.0611,0.0000,0.0000,0.0000,0.0000,0.0000
839,7.5726,-4.2201,0.0598,0.0000,0.0000,0.0000,0.0000,0.0000
840,7.5167,-3.8712,0.0619,0.0000,0.0000,0.0000,0.0000,0.0000
841,7.5085,3.8609,0.0715,0.0000,0.0000,0.0000,0.0000,0.0000
842,7.5459,4.2011,0.0730,0.0000,0.0000,0.0000,0.0000,0.0000
843,7.5661,4.5424,0.0737,0.0000,0.0000,0.0000,0.0000,0.0000
844,7.5362,4.9238,0.0722,0.0000,0.0000,0.0000,0.0000,0.0000
845,7.5415,5.2776,0.0741,0.0000,0.0000,0.0000,0.0000,0.0000
846,7.5428,5.6362,0.0739,0.0000,0.0000,0.0000,0.0000,0.0000
847,7.5436,6.0050,0.0711,0.0000,0.0000,0.0000,0.0000,0.0000
848,7.5536,6.3623,0.0722,0.0000,0.0000,0.0000,0.0000,0.0000
849,7.5529,6.7212,0.0733,0.0000,0.0000,0.0000,0.0000,0.0000
850,7.5441,7.0882,0.0720,0.0000,0.0000,0.0000,0.0000,0.0000
851,7.5428,7.4539,0.0732,0.0000,0.0000,0.0000,0.0000,0.0000
852,7.5413,7.8186,0.0746,0.0000,0.0000,0.0000,0.0000,0.0000
853,7.5395,8.1836,0.0751,0.0000,0.0000,0.0000,0.0000,0.0000
854,7.5361,8.5479,0.0746,0.0000,0.0000,0.0000,0.0000,0.0000
855,7.5324,8.9127,0.0746,0.0000,0.0000,0.0000,0.0000,0.0000
856,7.5281,9.2774,0.0744,0.0000,0.0000,0.0000,0.0000,0.0000
857,7.5242,9.6431,0.0757,0.0000,0.0000,0.0000,0.0000,0.0000
922,7.4069,-9.5170,0.0512,0.0000,0.0000,0.0000,0.0000,0.0000
923,7.4024,-9.1528,0.0515,0.0000,0.0000,0.0000,0.0000,0.0000
924,7.3979,-8.7885,0.0524,0.0000,0.0000,0.0000,0.0000,0.0000
925,7.3926,-8.4245,0.0514,0.0000,0.0000,0.0000,0.0000,0.0000
926,7.3882,-8.0598,0.0520,0.0000,0.0000,0.0000,0.0000,0.0000
927,7.3838,-7.6954,0.0522,0.0000,0.0000,0.0000,0.0000,0.0000
928,7.3814,-7.3306,0.0542,0.0000,0.0000,0.0000,0.0000,0.0000
929,7.3743,-6.9674,0.0505,0.0000,0.0000,0.0000,0.0000,0.0000
930,7.3650,-6.6067,0.0534,0.0000,0.0000,0.0000,0.0000,0.0000
931,7.3572,-6.2420,0.0558,0.0000,0.0000,0.0000,0.0000,0.0000
932,7.3462,-5.8778,0.0561,0.0000,0.0000,0.0000,0.0000,0.0000
933,7.3360,-5.5143,0.0567,0.0000,0.0000,0.0000,0.0000,0.0000
934,7.3541,-5.1398,0.0593,0.0000,0.0000,0.0000,0.0000,0.0000
935,7.3465,-4.7869,0.0580,0.0000,0.0000,0.0000,0.0000,0.0000
936,7.3048,-4.4268,0.0595,0.0000,0.0000,0.0000,0.0000,0.0000
937,7.2642,-4.0631,0.0587,0.0000,0.0000,0.0000,0.0000,0.0000
938,7.2855,-3.6901,0.0607,0.0000,0.0000,0.0000,0.0000,0.0000
939,7.3101,-3.3720,0.0594,0.0000,0.0000,0.0000,0.0000,0.0000
940,7.2625,-3.0277,0.0585,0.0000,0.0000,0.0000,0.0000,0.0000
941,7.2172,-2.6770,0.0592,0.0000,0.0000,0.0000,0.0000,0.0000
942,7.1922,-2.3323,0.0584,0.0000,0.0000,0.0000,0.0000,0.0000
943,7.1317,1.7461,0.0677,0.0000,0.0000,0.0000,0.0000,0.0000
944,7.1497,2.1037,0.0648,0.0000,0.0000,0.0000,0.0000,0.0000
945,7.1842,2.4678,0.0664,0.0000,0.0000,0.0000,0.0000,0.0000
946,7.2243,2.8359,0.0673,0.0000,0.0000,0.0000,0.0000,0.0000
947,7.2734,3.2057,0.0692,0.0000,0.0000,0.0000,0.0000,0.0000
948,7.3166,3.5834,0.0707,0.0000,0.0000,0.0000,0.0000,0.0000
949,7.2190,3.9809,0.0702,0.0000,0.0000,0.0000,0.0000,0.0000
950,7.2268,4.3496,0.0693,0.0000,0.0000,0.0000,0.0000,0.0000
951,7.2322,4.7104,0.0713,0.0000,0.0000,0.0000,0.0000,0.0000
952,7.2188,5.0781,0.0696,0.0000,0.0000,0.0000,0.0000,0.0000
953,7.2201,5.4418,0.0717,0.0000,0.0000,0.0000,0.0000,0.0000
954,7.2213,5.8064,0.0718,0.0000,0.0000,0.0000,0.0000,0.0000
955,7.2204,6.1705,0.0716,0.0000,0.0000,0.0000,0.0000,0.0000
956,7.2204,6.5331,0.0701,0.0000,0.0000,0.0000,0.0000,0.0000
957,7.2179,6.8954,0.0709,0.0000,0.0000,0.0000,0.0000,0.0000
958,7.2135,7.2616,0.0719,0.0000,0.0000,0.0000,0.0000,0.0000
959,7.2100,7.6263,0.0708,0.0000,0.0000,0.0000,0.0000,0.0000
960,7.2065,7.9918,0.0702,0.0000,0.0000,0.0000,0.0000,0.0000
961,7.2034,8.3566,0.0710,0.0000,0.0000,0.0000,0.0000,0.0000
962,7.2003,8.7209,0.0734,0.0000,0.0000,0.0000,0.0000,0.0000
963,7.1961,9.0864,0.0732,0.0000,0.0000,0.0000,0.0000,0.0000
964,7.1911,9.4514,0.0708,0.0000,0.0000,0.0000,0.0000,0.0000
1030,7.0695,-9.3359,0.0472,0.0000,0.0000,0.0000,0.0000,0.0000
1031,7.0652,-8.9718,0.0476,0.0000,0.0000,0.0000,0.0000,0.0000
1032,7.0607,-8.6083,0.0477,0.0000,0.0000,0.0000,0.0000,0.0000
1033,7.0569,-8.2442,0.0495,0.0000,0.0000,0.0000,0.0000,0.0000
1034,7.0523,-7.8796,0.0491,0.0000,0.0000,0.0000,0.0000,0.0000
1035,7.0493,-7.5153,0.0521,0.0000,0.0000,0.0000,0.0000,0.0000
1036,7.0437,-7.1513,0.0499,0.0000,0.0000,0.0000,0.0000,0.0000
1037,7.0377,-6.7891,0.0510,0.0000,0.0000,0.0000,0.0000,0.0000
1038,7.0322,-6.4250,0.0537,0.0000,0.0000,0.0000,0.0000,0.0000
1039,7.0245,-6.0609,0.0527,0.0000,0.0000,0.0000,0.0000,0.0000
1040,7.0168,-5.6959,0.0522,0.0000,0.0000,0.0000,0.0000,0.0000
1041,7.0184,-5.3282,0.0540,0.0000,0.0000,0.0000,0.0000,0.0000
1042,7.0157,-4.9678,0.0564,0.0000,0.0000,0.0000,0.0000,0.0000
1043,7.0013,-4.6107,0.0566,0.0000,0.0000,0.0000,0.0000,0.0000
1044,6.9782,-4.2469,0.0567,0.0000,0.0000,0.0000,0.0000,0.0000
1045,6.9722,-3.8755,0.0579,0.0000,0.0000,0.0000,0.0000,0.0000
1046,6.9714,-3.5161,0.0577,0.0000,0.0000,0.0000,0.0000,0.0000
1047,6.9651,-3.1706,0.0571,0.0000,0.0000,0.0000,0.0000,0.0000
1048,6.9376,-2.8134,0.0566,0.0000,0.0000,0.0000,0.0000,0.0000
1049,6.9211,-2.4423,0.0579,0.0000,0.0000,0.0000,0.0000,0.0000
1050,7.0237,-2.0468,0.0575,0.0000,0.0000,0.0000,0.0000,0.0000
1051,7.0063,-1.6702,0.0602,0.0000,0.0000,0.0000,0.0000,0.0000
1052,6.9878,-1.2984,0.0606,0.0000,0.0000,0.0000,0.0000,0.0000
1053,6.9758,-0.9310,0.0592,0.0000,0.0000,0.0000,0.0000,0.0000
1054,6.9671,-0.5646,0.0610,0.0000,0.0000,0.0000,0.0000,0.0000
1055,6.9590,-0.1983,0.0613,0.0000,0.0000,0.0000,0.0000,0.0000
1056,6.9560,0.1689,0.0623,0.0000,0.0000,0.0000,0.0000,0.0000
1057,6.9612,0.5355,0.0628,0.0000,0.0000,0.0000,0.0000,0.0000
1058,6.9711,0.8972,0.0620,0.0000,0.0000,0.0000,0.0000,0.0000
1059,6.9781,1.2509,0.0638,0.0000,0.0000,0.0000,0.0000,0.0000
1060,6.9103,1.5711,0.0637,0.0000,0.0000,0.0000,0.0000,0.0000
1061,6.8629,1.9466,0.0633,0.0000,0.0000,0.0000,0.0000,0.0000
1062,6.8762,2.3168,0.0643,0.0000,0.0000,0.0000,0.0000,0.0000
1063,6.8974,2.6853,0.0648,0.0000,0.0000,0.0000,0.0000,0.0000
1064,6.9229,3.0516,0.0651,0.0000,0.0000,0.0000,0.0000,0.0000
1065,6.9480,3.4157,0.0671,0.0000,0.0000,0.0000,0.0000,0.0000
1066,6.9352,3.7704,0.0666,0.0000,0.0000,0.0000,0.0000,0.0000
1067,6.9029,4.1496,0.0663,0.0000,0.0000,0.0000,0.0000,0.0000
1068,6.9021,4.5176,0.0675,0.0000,0.0000,0.0000,0.0000,0.0000
