# Name : Kerbbereich
# Stage: 49
# Units: length:mm angle:deg time:s 
id,x,y,z,displacement_x,displacement_y,displacement_z,epsilon_x,epsilon_y
87,-9.5357,9.8229,-0.1059,0.1722,0.7481,-0.0327,-0.0036,0.0060
88,-9.5650,9.4657,-0.1018,0.1730,0.7470,-0.0356,-0.0038,0.0046
89,-9.5907,9.1062,-0.1015,0.1726,0.7453,-0.0343,-0.0022,0.0051
90,-9.4568,8.7840,-0.1012,0.1716,0.7437,-0.0364,-0.0034,0.0031
91,-9.2623,8.4814,-0.1009,0.1694,0.7402,-0.0353,-0.0015,0.0058
92,-9.0732,8.1702,-0.0933,0.1673,0.7356,-0.0341,-0.0021,0.0080
93,-8.9013,7.8518,-0.0982,0.1647,0.7293,-0.0328,-0.0028,0.0114
94,-8.7363,7.5255,-0.0926,0.1616,0.7211,-0.0304,-0.0040,0.0168
95,-8.5911,7.1910,-0.0835,0.1592,0.7117,-0.0269,-0.0054,0.0203
96,-8.4556,6.8459,-0.0837,0.1574,0.6995,-0.0248,-0.0079,0.0257
97,-8.3321,6.4956,-0.0824,0.1569,0.6856,-0.0216,-0.0107,0.0321
98,-8.2115,6.1404,-0.0733,0.1574,0.6684,-0.0186,-0.0130,0.0407
99,-8.0762,5.7869,-0.0670,0.1588,0.6487,-0.0158,-0.0151,0.0463
100,-7.9394,5.4307,-0.0658,0.1610,0.6254,-0.0101,-0.0173,0.0563
101,-7.8341,5.0622,-0.0614,0.1661,0.5987,-0.0061,-0.0206,0.0671
102,-7.7468,4.6810,-0.0519,0.1733,0.5686,-0.0032,-0.0287,0.0782
103,-7.6518,4.3008,-0.0498,0.1809,0.5355,0.0019,-0.0330,0.0865
104,-7.5461,3.9189,-0.0432,0.1890,0.4988,0.0060,-0.0371,0.0970
105,-7.4509,3.5300,-0.0428,0.1988,0.4583,0.0089,-0.0449,0.1058
106,-7.3684,3.1359,-0.0404,0.2086,0.4160,0.0142,-0.0473,0.1131
107,-7.2949,2.7360,-0.0354,0.2173,0.3695,0.0166,-0.0472,0.1210
108,-7.2332,2.3339,-0.0313,0.2274,0.3210,0.0190,-0.0525,0.1289
109,-7.1816,1.9257,-0.0278,0.2364,0.2686,0.0202,-0.0556,0.1343
110,-7.1334,1.5164,-0.0295,0.2444,0.2162,0.0240,-0.0587,0.1377
111,-7.0871,1.1047,-0.0344,0.2504,0.1618,0.0249,-0.0625,0.1396
112,-7.0474,0.6955,-0.0338,0.2543,0.1081,0.0265,-0.0653,0.1403
113,-7.0289,0.2821,-0.0302,0.2567,0.0527,0.0269,-0.0683,0.1440
114,-7.0305,-0.1334,-0.0312,0.2562,-0.0036,0.0249,-0.0660,0.1413
115,-7.0431,-0.5460,-0.0359,0.2543,-0.0573,0.0266,-0.0645,0.1411
116,-7.0659,-0.9593,-0.0282,0.2503,-0.1119,0.0258,-0.0617,0.1408
117,-7.0985,-1.3704,-0.0348,0.2449,-0.1669,0.0240,-0.0618,0.1393
118,-7.1415,-1.7797,-0.0405,0.2369,-0.2193,0.0257,-0.0589,0.1334
119,-7.1941,-2.1876,-0.0382,0.2276,-0.2702,0.0227,-0.0563,0.1275
120,-7.2520,-2.5923,-0.0423,0.2174,-0.3188,0.0213,-0.0520,0.1233
121,-7.3184,-2.9936,-0.0471,0.2064,-0.3657,0.0182,-0.0458,0.1168
122,-7.3983,-3.3898,-0.0466,0.1963,-0.4106,0.0154,-0.0436,0.1072
123,-7.4848,-3.7812,-0.0573,0.1865,-0.4511,0.0117,-0.0390,0.0960
124,-7.5706,-4.1682,-0.0626,0.1772,-0.4883,0.0081,-0.0327,0.0870
125,-7.6631,-4.5515,-0.0688,0.1687,-0.5219,0.0050,-0.0281,0.0788
126,-7.7637,-4.9278,-0.0770,0.1618,-0.5519,0.0018,-0.0237,0.0683
127,-7.8662,-5.3001,-0.0836,0.1557,-0.5784,-0.0024,-0.0204,0.0580
128,-7.9819,-5.6644,-0.0868,0.1519,-0.6016,-0.0056,-0.0173,0.0484
129,-8.1203,-6.0185,-0.0922,0.1489,-0.6226,-0.0092,-0.0119,0.0415
130,-8.2581,-6.3689,-0.0987,0.1479,-0.6398,-0.0129,-0.0112,0.0348
131,-8.4013,-6.7147,-0.1053,0.1476,-0.6552,-0.0160,-0.0075,0.0260
132,-8.5481,-7.0538,-0.1101,0.1479,-0.6668,-0.0181,-0.0052,0.0215
133,-8.6976,-7.3891,-0.1167,0.1491,-0.6769,-0.0207,-0.0044,0.0169
134,-8.8529,-7.7212,-0.1191,0.1511,-0.6850,-0.0231,-0.0042,0.0127
135,-9.0128,-8.0491,-0.1203,0.1528,-0.6910,-0.0250,-0.0032,0.0092
136,-9.1739,-8.3736,-0.1244,0.1546,-0.6953,-0.0261,-0.0033,0.0078
137,-9.3392,-8.6951,-0.1233,0.1558,-0.6984,-0.0259,-0.0039,0.0053
138,-9.5112,-9.0099,-0.1185,0.1561,-0.7004,-0.0278,-0.0031,0.0042
139,-9.5948,-9.3520,-0.1243,0.1554,-0.7016,-0.0276,-0.0018,0.0044
140,-9.5957,-9.7128,-0.1269,0.1539,-0.7030,-0.0267,-0.0019,0.0056
141,-9.5980,-10.0726,-0.1315,0.1515,-0.7054,-0.0263,-0.0023,0.0075
142,-9.5994,-10.4300,-0.1307,0.1486,-0.7083,-0.0257,-0.0024,0.0079
254,9.5557,-10.1780,0.0366,-0.1704,-0.7354,-0.0279,-0.0025,0.0066
255,9.5449,-9.8103,0.0361,-0.1720,-0.7333,-0.0289,-0.0023,0.0062
256,9.5348,-9.4442,0.0357,-0.1729,-0.7315,-0.0295,-0.0015,0.0051
257,9.4747,-9.0822,0.0332,-0.1726,-0.7301,-0.0301,-0.0014,0.0042
258,9.3087,-8.7513,0.0357,-0.1714,-0.7273,-0.0302,-0.0022,0.0057
259,9.1276,-8.4258,0.0380,-0.1695,-0.7235,-0.0292,-0.0026,0.0077
260,8.9640,-8.0884,0.0365,-0.1670,-0.7180,-0.0279,-0.0030,0.0102
261,8.8101,-7.7467,0.0350,-0.1644,-0.7111,-0.0276,-0.0038,0.0132
262,8.6493,-7.4064,0.0380,-0.1618,-0.7022,-0.0250,-0.0057,0.0178
263,8.4933,-7.0614,0.0397,-0.1595,-0.6907,-0.0222,-0.0061,0.0231
264,8.3448,-6.7096,0.0394,-0.1579,-0.6771,-0.0177,-0.0065,0.0288
265,8.2096,-6.3507,0.0426,-0.1578,-0.6605,-0.0147,-0.0098,0.0364
266,8.0758,-5.9876,0.0452,-0.1598,-0.6414,-0.0135,-0.0158,0.0433
267,7.9464,-5.6208,0.0501,-0.1616,-0.6192,-0.0078,-0.0188,0.0537
268,7.8243,-5.2472,0.0544,-0.1661,-0.5935,-0.0041,-0.0219,0.0619
269,7.7101,-4.8689,0.0563,-0.1714,-0.5646,-0.0009,-0.0255,0.0721
270,7.6033,-4.4843,0.0603,-0.1779,-0.5322,0.0027,-0.0281,0.0802
271,7.4991,-4.0954,0.0642,-0.1856,-0.4970,0.0064,-0.0335,0.0910
272,7.4085,-3.6998,0.0715,-0.1946,-0.4576,0.0101,-0.0393,0.1007
273,7.3257,-3.2996,0.0740,-0.2040,-0.4156,0.0137,-0.0426,0.1086
274,7.2512,-2.8948,0.0720,-0.2139,-0.3702,0.0163,-0.0468,0.1178
275,7.1889,-2.4836,0.0799,-0.2246,-0.3213,0.0175,-0.0532,0.1275
276,7.1291,-2.0703,0.0795,-0.2336,-0.2696,0.0192,-0.0547,0.1299
277,7.0856,-1.6553,0.0793,-0.2423,-0.2177,0.0219,-0.0569,0.1343
278,7.0635,-1.2365,0.0823,-0.2501,-0.1639,0.0221,-0.0585,0.1381
279,7.0455,-0.8166,0.0807,-0.2561,-0.1088,0.0222,-0.0612,0.1397
280,7.0330,-0.3955,0.0844,-0.2590,-0.0532,0.0210,-0.0609,0.1403
281,7.0228,0.0236,0.0821,-0.2597,0.0016,0.0205,-0.0613,0.1397
282,7.0277,0.4435,0.0815,-0.2586,0.0568,0.0190,-0.0629,0.1405
283,7.0499,0.8640,0.0828,-0.2548,0.1124,0.0191,-0.0620,0.1384
284,7.0752,1.2827,0.0843,-0.2484,0.1655,0.0186,-0.0588,0.1354
285,7.1024,1.7001,0.0819,-0.2405,0.2191,0.0186,-0.0571,0.1340
286,7.1482,2.1169,0.0815,-0.2312,0.2716,0.0179,-0.0565,0.1300
287,7.2145,2.5282,0.0800,-0.2205,0.3220,0.0162,-0.0493,0.1212
288,7.2822,2.9375,0.0803,-0.2099,0.3684,0.0117,-0.0460,0.1142
289,7.3575,3.3422,0.0765,-0.1993,0.4132,0.0084,-0.0414,0.1068
290,7.4467,3.7419,0.0730,-0.1898,0.4543,0.0052,-0.0374,0.0964
291,7.5455,4.1364,0.0748,-0.1802,0.4925,0.0013,-0.0330,0.0900
292,7.6466,4.5273,0.0754,-0.1715,0.5270,-0.0026,-0.0271,0.0789
293,7.7560,4.9120,0.0697,-0.1644,0.5582,-0.0070,-0.0226,0.0669
294,7.8760,5.2888,0.0680,-0.1595,0.5853,-0.0113,-0.0207,0.0602
295,7.9951,5.6643,0.0655,-0.1551,0.6096,-0.0152,-0.0164,0.0496
296,8.1134,6.0354,0.0627,-0.1523,0.6299,-0.0193,-0.0142,0.0425
297,8.2434,6.3990,0.0589,-0.1507,0.6475,-0.0235,-0.0103,0.0338
298,8.3979,6.7521,0.0565,-0.1503,0.6626,-0.0264,-0.0067,0.0272
299,8.5526,7.1020,0.0573,-0.1512,0.6750,-0.0299,-0.0056,0.0222
300,8.7073,7.4489,0.0559,-0.1526,0.6851,-0.0328,-0.0048,0.0155
301,8.8691,7.7918,0.0556,-0.1542,0.6925,-0.0338,-0.0034,0.0112
302,9.0421,8.1269,0.0536,-0.1558,0.6983,-0.0354,-0.0023,0.0083
303,9.2162,8.4608,0.0538,-0.1573,0.7024,-0.0365,-0.0018,0.0068
304,9.3943,8.7930,0.0607,-0.1581,0.7055,-0.0357,-0.0022,0.0055
305,9.5314,9.1356,0.0684,-0.1581,0.7075,-0.0353,-0.0024,0.0043
306,9.5718,9.5031,0.0673,-0.1573,0.7085,-0.0364,-0.0037,0.0046
307,9.5853,9.8702,0.0633,-0.1549,0.7102,-0.0349,-0.0030,0.0064
308,9.5967,10.2405,0.0699,-0.1520,0.7125,-0.0350,-0.0037,0.0077
343,9.2977,9.3519,0.0610,-0.1573,0.7081,-0.0354,-0.0032,0.0061
344,9.2939,9.6940,0.0616,-0.1553,0.7103,-0.0339,-0.0034,0.0072
345,9.3023,10.0532,0.0643,-0.1528,0.7132,-0.0342,-0.0037,0.0082
346,9.3076,10.4192,0.0633,-0.1492,0.7162,-0.0334,-0.0042,0.0089
412,9.2266,-9.9371,0.0359,-0.1707,-0.7343,-0.0278,-0.0030,0.0077
413,9.2161,-9.5721,0.0350,-0.1722,-0.7314,-0.0287,-0.0029,0.0074
414,9.1865,-9.2146,0.0370,-0.1728,-0.7290,-0.0302,-0.0027,0.0061
415,9.1091,-8.8586,0.0372,-0.1714,-0.7264,-0.0291,-0.0024,0.0064
416,8.9286,8.4185,0.0567,-0.1566,0.6992,-0.0356,-0.0030,0.0090
417,9.0214,8.7519,0.0587,-0.1576,0.7030,-0.0355,-0.0031,0.0077
418,9.1038,9.0945,0.0588,-0.1571,0.7058,-0.0346,-0.0032,0.0077
419,9.0022,9.4815,0.0585,-0.1554,0.7089,-0.0333,-0.0042,0.0089
420,8.9995,9.8559,0.0592,-0.1532,0.7124,-0.0331,-0.0049,0.0097
421,9.0048,10.2252,0.0608,-0.1498,0.7159,-0.0321,-0.0053,0.0098
487,8.9017,-10.0857,0.0332,-0.1689,-0.7357,-0.0266,-0.0044,0.0099
488,8.8930,-9.7202,0.0331,-0.1705,-0.7321,-0.0275,-0.0044,0.0101
489,8.8767,-9.3601,0.0354,-0.1711,-0.7283,-0.0276,-0.0048,0.0099
490,8.8424,-9.0067,0.0366,-0.1710,-0.7247,-0.0283,-0.0047,0.0090
491,8.8343,-8.6349,0.0358,-0.1698,-0.7213,-0.0278,-0.0037,0.0095
492,8.7789,-8.3066,0.0362,-0.1681,-0.7170,-0.0276,-0.0034,0.0109
493,8.5941,7.8300,0.0564,-0.1531,0.6883,-0.0326,-0.0049,0.0133
494,8.6798,8.1788,0.0539,-0.1551,0.6937,-0.0350,-0.0045,0.0114
495,8.6718,8.5719,0.0538,-0.1558,0.6982,-0.0338,-0.0050,0.0110
496,8.7223,8.9329,0.0556,-0.1560,0.7022,-0.0336,-0.0047,0.0105
497,8.7257,9.2787,0.0562,-0.1551,0.7062,-0.0327,-0.0049,0.0116
498,8.6960,9.6561,0.0581,-0.1530,0.7103,-0.0329,-0.0059,0.0116
499,8.6945,10.0299,0.0605,-0.1498,0.7148,-0.0313,-0.0063,0.0119
500,8.6963,10.4005,0.0604,-0.1463,0.7191,-0.0313,-0.0064,0.0120
565,8.5754,-10.2552,0.0331,-0.1663,-0.7370,-0.0267,-0.0057,0.0127
566,8.5674,-9.8877,0.0335,-0.1682,-0.7327,-0.0260,-0.0057,0.0121
567,8.5562,-9.5230,0.0326,-0.1693,-0.7282,-0.0264,-0.0057,0.0126
568,8.5385,-9.1603,0.0326,-0.1695,-0.7234,-0.0270,-0.0058,0.0124
569,8.5257,-8.7925,0.0330,-0.1688,-0.7188,-0.0268,-0.0059,0.0126
570,8.5005,-8.4285,0.0356,-0.1674,-0.7136,-0.0268,-0.0059,0.0130
571,8.5463,-8.0388,0.0362,-0.1653,-0.7095,-0.0260,-0.0050,0.0140
572,8.4842,-7.6868,0.0364,-0.1627,-0.7025,-0.0249,-0.0058,0.0164
573,8.3455,7.3154,0.0562,-0.1503,0.6748,-0.0292,-0.0059,0.0202
574,8.3552,7.6283,0.0539,-0.1512,0.6804,-0.0309,-0.0060,0.0171
575,8.3412,8.0049,0.0525,-0.1525,0.6863,-0.0315,-0.0063,0.0154
576,8.3708,8.3640,0.0520,-0.1536,0.6921,-0.0318,-0.0063,0.0144
577,8.3763,8.7377,0.0518,-0.1545,0.6972,-0.0325,-0.0062,0.0134
578,8.3880,9.0981,0.0538,-0.1539,0.7020,-0.0322,-0.0065,0.0140
579,8.3861,9.4607,0.0545,-0.1521,0.7073,-0.0317,-0.0071,0.0141
580,8.3770,9.8339,0.0557,-0.1496,0.7124,-0.0317,-0.0075,0.0142
581,8.3761,10.2057,0.0563,-0.1460,0.7177,-0.0310,-0.0074,0.0140
647,8.2405,-10.0666,0.0326,-0.1652,-0.7338,-0.0259,-0.0078,0.0150
648,8.2314,-9.6977,0.0302,-0.1668,-0.7283,-0.0259,-0.0075,0.0149
649,8.2213,-9.3306,0.0318,-0.1675,-0.7228,-0.0258,-0.0069,0.0151
650,8.2106,-8.9618,0.0304,-0.1672,-0.7172,-0.0254,-0.0071,0.0153
651,8.1987,-8.5921,0.0332,-0.1658,-0.7111,-0.0245,-0.0071,0.0160
652,8.2073,-8.2121,0.0345,-0.1643,-0.7054,-0.0244,-0.0071,0.0164
653,8.1969,-7.8411,0.0335,-0.1617,-0.6986,-0.0237,-0.0072,0.0185
654,8.2433,-7.4284,0.0384,-0.1593,-0.6918,-0.0225,-0.0070,0.0212
655,8.1624,-7.0595,0.0416,-0.1572,-0.6808,-0.0209,-0.0078,0.0260
656,8.0825,-6.7075,0.0414,-0.1557,-0.6681,-0.0168,-0.0092,0.0320
657,7.9627,6.3105,0.0610,-0.1475,0.6359,-0.0209,-0.0129,0.0372
658,8.0366,6.6715,0.0575,-0.1473,0.6503,-0.0244,-0.0099,0.0310
659,8.1196,7.0400,0.0578,-0.1484,0.6628,-0.0280,-0.0079,0.0256
660,8.0385,7.4198,0.0537,-0.1483,0.6694,-0.0289,-0.0079,0.0217
661,8.0432,7.7890,0.0529,-0.1496,0.6769,-0.0297,-0.0072,0.0192
662,8.0425,8.1647,0.0513,-0.1509,0.6836,-0.0305,-0.0072,0.0180
663,8.0536,8.5333,0.0527,-0.1519,0.6904,-0.0309,-0.0083,0.0172
664,8.0547,8.9030,0.0530,-0.1518,0.6967,-0.0304,-0.0087,0.0167
665,8.0566,9.2699,0.0545,-0.1506,0.7026,-0.0297,-0.0083,0.0167
666,8.0550,9.6385,0.0543,-0.1482,0.7086,-0.0301,-0.0084,0.0166
667,8.0516,10.0113,0.0549,-0.1453,0.7149,-0.0298,-0.0084,0.0165
668,8.0504,10.3829,0.0538,-0.1417,0.7209,-0.0291,-0.0084,0.0163
733,7.9112,-10.2497,0.0281,-0.1614,-0.7357,-0.0242,-0.0094,0.0170
734,7.9056,-9.8794,0.0311,-0.1628,-0.7293,-0.0239,-0.0096,0.0175
735,7.8975,-9.5094,0.0312,-0.1648,-0.7228,-0.0252,-0.0093,0.0178
736,7.8892,-9.1393,0.0300,-0.1650,-0.7160,-0.0238,-0.0088,0.0177
737,7.8815,-8.7685,0.0304,-0.1642,-0.7095,-0.0230,-0.0084,0.0187
738,7.8813,-8.3929,0.0324,-0.1629,-0.7022,-0.0237,-0.0081,0.0194
739,7.8789,-8.0199,0.0347,-0.1604,-0.6948,-0.0218,-0.0079,0.0202
740,7.8930,-7.6405,0.0350,-0.1581,-0.6872,-0.0217,-0.0081,0.0226
741,7.8743,-7.2789,0.0372,-0.1558,-0.6777,-0.0207,-0.0088,0.0260
742,7.8230,-6.9088,0.0401,-0.1537,-0.6660,-0.0185,-0.0098,0.0308
743,7.8339,-6.5201,0.0399,-0.1533,-0.6532,-0.0159,-0.0112,0.0361
744,7.8240,-6.1869,0.0433,-0.1540,-0.6403,-0.0127,-0.0134,0.0415
745,7.7598,-5.8397,0.0493,-0.1553,-0.6229,-0.0081,-0.0171,0.0481
746,7.6630,5.3684,0.0643,-0.1533,0.5830,-0.0113,-0.0206,0.0588
747,7.7249,5.7554,0.0642,-0.1491,0.6050,-0.0149,-0.0164,0.0492
748,7.7210,6.0913,0.0616,-0.1457,0.6198,-0.0179,-0.0139,0.0429
749,7.7025,6.4780,0.0554,-0.1435,0.6341,-0.0210,-0.0115,0.0361
750,7.7455,6.8486,0.0540,-0.1444,0.6473,-0.0245,-0.0104,0.0301
751,7.7513,7.2030,0.0531,-0.1451,0.6570,-0.0270,-0.0096,0.0262
752,7.7260,7.5821,0.0505,-0.1462,0.6660,-0.0273,-0.0084,0.0236
753,7.7252,7.9571,0.0493,-0.1480,0.6743,-0.0290,-0.0082,0.0217
754,7.7250,8.3305,0.0488,-0.1486,0.6821,-0.0298,-0.0090,0.0204
755,7.7279,8.7017,0.0528,-0.1485,0.6893,-0.0287,-0.0098,0.0197
756,7.7262,9.0727,0.0524,-0.1483,0.6965,-0.0289,-0.0101,0.0194
757,7.7257,9.4438,0.0541,-0.1468,0.7037,-0.0289,-0.0099,0.0190
758,7.7238,9.8155,0.0528,-0.1441,0.7106,-0.0289,-0.0099,0.0188
759,7.7221,10.1880,0.0523,-0.1407,0.7173,-0.0283,-0.0101,0.0186
825,7.5773,-10.0637,0.0283,-0.1588,-0.7306,-0.0225,-0.0106,0.0198
826,7.5705,-9.6918,0.0282,-0.1606,-0.7231,-0.0231,-0.0103,0.0203
827,7.5644,-9.3202,0.0291,-0.1615,-0.7155,-0.0231,-0.0104,0.0204
828,7.5587,-8.9484,0.0305,-0.1616,-0.7080,-0.0228,-0.0101,0.0209
829,7.5541,-8.5748,0.0271,-0.1605,-0.6998,-0.0226,-0.0101,0.0222
830,7.5527,-8.2018,0.0316,-0.1590,-0.6914,-0.0224,-0.0098,0.0223
831,7.5555,-7.8273,0.0337,-0.1567,-0.6832,-0.0207,-0.0095,0.0241
832,7.5490,-7.4589,0.0334,-0.1536,-0.6734,-0.0188,-0.0097,0.0270
833,7.5303,-7.0902,0.0372,-0.1514,-0.6626,-0.0172,-0.0103,0.0301
834,7.5211,-6.7070,0.0388,-0.1498,-0.6501,-0.0155,-0.0115,0.0352
835,7.5081,-6.3351,0.0409,-0.1492,-0.6357,-0.0129,-0.0131,0.0407
836,7.4903,-5.9618,0.0469,-0.1501,-0.6192,-0.0096,-0.0149,0.0475
837,7.5522,-5.5500,0.0517,-0.1545,-0.6009,-0.0048,-0.0189,0.0557
838,7.4817,-5.1550,0.0572,-0.1594,-0.5756,-0.0010,-0.0236,0.0656
839,7.4050,-4.7654,0.0584,-0.1651,-0.5460,0.0013,-0.0274,0.0755
840,7.3419,-4.3858,0.0642,-0.1724,-0.5155,0.0049,-0.0308,0.0822
841,7.3445,4.3673,0.0741,-0.1664,0.5057,0.0000,-0.0303,0.0830
842,7.3893,4.7364,0.0722,-0.1591,0.5345,-0.0036,-0.0260,0.0734
843,7.4165,5.1025,0.0688,-0.1521,0.5594,-0.0078,-0.0225,0.0634
844,7.3931,5.5061,0.0639,-0.1458,0.5816,-0.0112,-0.0181,0.0546
845,7.4020,5.8783,0.0621,-0.1423,0.5999,-0.0150,-0.0151,0.0475
846,7.4052,6.2536,0.0581,-0.1404,0.6167,-0.0189,-0.0128,0.0415
847,7.4063,6.6368,0.0527,-0.1402,0.6310,-0.0216,-0.0115,0.0353
848,7.4157,7.0063,0.0515,-0.1409,0.6433,-0.0239,-0.0109,0.0307
849,7.4134,7.3757,0.0513,-0.1425,0.6537,-0.0252,-0.0102,0.0273
850,7.4031,7.7520,0.0483,-0.1441,0.6630,-0.0271,-0.0101,0.0252
851,7.4005,8.1269,0.0484,-0.1454,0.6722,-0.0282,-0.0101,0.0243
852,7.3990,8.5004,0.0503,-0.1455,0.6810,-0.0277,-0.0102,0.0229
853,7.3976,8.8737,0.0514,-0.1451,0.6893,-0.0272,-0.0110,0.0222
854,7.3954,9.2460,0.0510,-0.1440,0.6973,-0.0272,-0.0117,0.0215
855,7.3937,9.6185,0.0508,-0.1420,0.7050,-0.0273,-0.0116,0.0212
856,7.3927,9.9911,0.0508,-0.1388,0.7129,-0.0271,-0.0112,0.0211
857,7.3923,10.3643,0.0520,-0.1353,0.7205,-0.0273,-0.0108,0.0206
922,7.2494,-10.2485,0.0252,-0.1540,-0.7324,-0.0224,-0.0121,0.0218
923,7.2428,-9.8760,0.0257,-0.1562,-0.7241,-0.0222,-0.0122,0.0225
924,7.2369,-9.5035,0.0269,-0.1577,-0.7158,-0.0220,-0.0121,0.0228
925,7.2310,-9.1309,0.0257,-0.1583,-0.7072,-0.0221,-0.0119,0.0237
926,7.2273,-8.7572,0.0278,-0.1576,-0.6982,-0.0207,-0.0119,0.0242
927,7.2245,-8.3836,0.0281,-0.1561,-0.6890,-0.0207,-0.0117,0.0247
928,7.2240,-8.0096,0.0302,-0.1543,-0.6799,-0.0206,-0.0116,0.0258
929,7.2195,-7.6361,0.0280,-0.1516,-0.6695,-0.0192,-0.0111,0.0282
930,7.2128,-7.2646,0.0322,-0.1491,-0.6587,-0.0179,-0.0106,0.0305
931,7.2074,-6.8877,0.0359,-0.1468,-0.6465,-0.0167,-0.0113,0.0346
932,7.1979,-6.5094,0.0394,-0.1454,-0.6323,-0.0135,-0.0130,0.0395
933,7.1882,-6.1299,0.0436,-0.1449,-0.6163,-0.0100,-0.0147,0.0452
934,7.2043,-5.7372,0.0502,-0.1470,-0.5982,-0.0061,-0.0169,0.0519
935,7.1940,-5.3641,0.0528,-0.1498,-0.5779,-0.0023,-0.0199,0.0597
936,7.1482,-4.9785,0.0575,-0.1539,-0.5525,0.0008,-0.0237,0.0699
937,7.1018,-4.5849,0.0606,-0.1600,-0.5225,0.0045,-0.0275,0.0786
938,7.1131,-4.1806,0.0646,-0.1701,-0.4913,0.0063,-0.0321,0.0870
939,7.1288,-3.8325,0.0673,-0.1792,-0.4613,0.0102,-0.0352,0.0966
940,7.0723,-3.4501,0.0705,-0.1883,-0.4232,0.0141,-0.0396,0.1050
941,7.0178,-3.0579,0.0740,-0.1976,-0.3817,0.0167,-0.0440,0.1125
942,6.9831,-2.6698,0.0762,-0.2076,-0.3384,0.0195,-0.0490,0.1212
943,6.9123,2.0015,0.0885,-0.2206,0.2545,0.0195,-0.0539,0.1304
944,6.9410,2.4082,0.0842,-0.2102,0.3036,0.0179,-0.0499,0.1235
945,6.9864,2.8186,0.0818,-0.1994,0.3500,0.0137,-0.0456,0.1151
946,7.0375,3.2310,0.0803,-0.1887,0.3943,0.0110,-0.0423,0.1083
947,7.0969,3.6429,0.0789,-0.1785,0.4364,0.0075,-0.0384,0.0983
948,7.1501,4.0582,0.0766,-0.1688,0.4740,0.0036,-0.0336,0.0896
949,7.0664,4.4881,0.0723,-0.1549,0.5065,-0.0005,-0.0279,0.0795
950,7.0817,4.8852,0.0673,-0.1477,0.5349,-0.0047,-0.0235,0.0688
951,7.0920,5.2700,0.0656,-0.1427,0.5589,-0.0085,-0.0199,0.0597
952,7.0827,5.6585,0.0602,-0.1388,0.5797,-0.0123,-0.0169,0.0518
953,7.0861,6.0403,0.0591,-0.1368,0.5978,-0.0155,-0.0146,0.0457
954,7.0881,6.4208,0.0560,-0.1360,0.6137,-0.0189,-0.0131,0.0399
955,7.0867,6.7988,0.0536,-0.1366,0.6276,-0.0211,-0.0119,0.0351
956,7.0856,7.1735,0.0503,-0.1378,0.6397,-0.0231,-0.0112,0.0314
957,7.0814,7.5468,0.0499,-0.1395,0.6507,-0.0243,-0.0113,0.0287
958,7.0755,7.9232,0.0493,-0.1410,0.6608,-0.0259,-0.0116,0.0275
959,7.0711,8.2980,0.0482,-0.1420,0.6709,-0.0260,-0.0120,0.0263
960,7.0680,8.6728,0.0478,-0.1416,0.6802,-0.0258,-0.0121,0.0251
961,7.0659,9.0468,0.0488,-0.1407,0.6894,-0.0257,-0.0124,0.0246
962,7.0645,9.4199,0.0502,-0.1390,0.6983,-0.0267,-0.0125,0.0235
963,7.0627,9.7940,0.0502,-0.1367,0.7069,-0.0266,-0.0120,0.0238
964,7.0609,10.1681,0.0485,-0.1335,0.7159,-0.0259,-0.0116,0.0232
1030,6.9153,-10.0609,0.0235,-0.1508,-0.7258,-0.0201,-0.0136,0.0246
1031,6.9095,-9.6878,0.0244,-0.1523,-0.7167,-0.0196,-0.0142,0.0249
1032,6.9037,-9.3147,0.0235,-0.1537,-0.7073,-0.0207,-0.0141,0.0262
1033,6.9000,-8.9404,0.0258,-0.1536,-0.6970,-0.0202,-0.0136,0.0266
1034,6.8964,-8.5662,0.0261,-0.1528,-0.6874,-0.0196,-0.0131,0.0267
1035,6.8949,-8.1917,0.0287,-0.1512,-0.6773,-0.0200,-0.0129,0.0277
1036,6.8916,-7.8172,0.0269,-0.1490,-0.6666,-0.0196,-0.0126,0.0295
1037,6.8883,-7.4436,0.0301,-0.1463,-0.6553,-0.0176,-0.0122,0.0312
1038,6.8847,-7.0674,0.0332,-0.1445,-0.6432,-0.0173,-0.0124,0.0344
1039,6.8798,-6.6896,0.0353,-0.1418,-0.6294,-0.0143,-0.0133,0.0384
1040,6.8737,-6.3091,0.0394,-0.1402,-0.6140,-0.0097,-0.0145,0.0431
1041,6.8751,-5.9244,0.0436,-0.1405,-0.5968,-0.0074,-0.0166,0.0495
1042,6.8712,-5.5440,0.0493,-0.1418,-0.5770,-0.0042,-0.0188,0.0564
1043,6.8540,-5.1642,0.0534,-0.1447,-0.5541,-0.0004,-0.0213,0.0646
1044,6.8263,-4.7736,0.0562,-0.1494,-0.5274,0.0022,-0.0243,0.0736
1045,6.8136,-4.3720,0.0613,-0.1562,-0.4971,0.0058,-0.0293,0.0818
1046,6.8049,-3.9800,0.0641,-0.1644,-0.4646,0.0087,-0.0332,0.0906
1047,6.7898,-3.6002,0.0673,-0.1733,-0.4304,0.0123,-0.0363,0.0996
1048,6.7539,-3.2027,0.0709,-0.1819,-0.3901,0.0162,-0.0404,0.1080
1049,6.7278,-2.7875,0.0754,-0.1918,-0.3461,0.0192,-0.0441,0.1171
1050,6.8140,-2.3426,0.0765,-0.2083,-0.2967,0.0204,-0.0501,0.1249
1051,6.7868,-1.9153,0.0806,-0.2184,-0.2461,0.0216,-0.0534,0.1293
1052,6.7597,-1.4905,0.0823,-0.2271,-0.1931,0.0226,-0.0555,0.1347
